637
571
487
397
349
334
332
336
337
362
424
384
422
439
489
512
500
514
506
528
520
526
574
517
560
501
476
485
486
492
512
496
486
472
473
512
547
565
552
526
543
531
528
529
505
558
541
535
555
574
617
613
572
552
543
548
570
555
558
571
578
597
581
574
571
566
611
624
614
640
640
657
657
661
661
659
673
669
661
675
676
677
655
620
588
559
548
546
512
528
464
441
450
429
424
420
409
393
396
401
399
386
401
399
407
405
389
413
402
360
358
385
425
390
383
403
393
385
360
344
344
350
383
428
422
414
400
411
445
442
430
423
436
481
466
446
426
386
427
423
428
451
412
429
422
430
448
434
452
439
414
457
408
449
457
441
477
467
478
490
477
510
532
459
442
419
418
414
409
461
436
425
428
420
432
432
430
451
425
446
454
444
466
449
468
488
478
498
475
466
486
425
424
403
435
472
498
460
457
441
471
456
466
475
467
491
481
442
433
435
488
518
506
513
496
500
500
468
460
452
469
472
444
457
492
456
472
454
459
467
452
488
479
473
476
473
478
462
434
404
400
436
466
490
487
439
397
367
364
378
373
396
418
424
377
358
364
369
351
349
346
347
355
353
348
388
362
413
464
472
484
526
585
604
578
509
408
370
338
332
334
330
334
333
334
342
351
400
448
463
469
467
466
481
458
472
477
505
559
544
553
554
529
512
485
476
496
522
559
599
568
580
573
585
586
590
569
572
606
611
607
610
596
612
634
630
645
646
641
678
666
652
642
655
677
686
687
670
686
710
707
686
693
691
704
720
710
713
705
728
741
733
714
697
686
720
702
681
679
668
653
665
575
560
550
546
509
499
481
465
476
462
460
436
433
425
422
427
435
417
420
420
433
465
451
450
437
443
450
448
459
451
427
433
427
415
422
426
446
454
453
472
435
426
439
440
429
412
399
400
406
447
460
459
460
466
485
472
446
444
441
461
474
464
456
456
470
496
463
463
465
452
532
460
456
449
453
487
459
448
467
464
511
506
500
519
491
505
486
466
483
489
507
474
491
460
458
481
496
480
483
450
435
448
462
454
431
424
459
468
472
473
478
512
496
481
492
496
482
482
473
479
450
473
479
465
468
455
447
455
444
472
480
472
460
433
420
431
441
471
509
491
499
515
547
542
535
521
511
537
528
509
523
513
515
492
466
459
449
464
469
444
443
431
428
432
415
420
436
469
470
453
456
457
487
502
445
434
436
432
465
469
463
480
484
521
518
525
555
556
596
534
427
343
332
334
331
334
336
341
374
419
461
480
492
501
536
524
510
507
518
550
524
492
485
467
495
512
497
493
480
491
487
486
546
507
566
525
505
544
565
542
546
555
522
530
550
537
581
553
546
530
558
552
528
554
537
569
560
583
566
567
578
597
649
657
596
610
643
653
641
627
631
652
656
654
635
640
659
647
641
638
655
617
593
579
565
541
518
479
439
440
437
473
452
430
419
423
427
415
384
369
352
396
374
348
347
355
371
393
383
383
364
376
409
388
373
370
372
383
369
378
391
400
425
419
429
423
415
419
421
424
446
430
420
420
413
420
414
422
431
404
423
432
415
436
426
440
416
399
428
428
430
404
403
474
454
451
437
422
464
465
442
427
473
441
434
443
439
423
403
397
402
440
485
452
430
402
405
408
405
433
425
447
467
463
500
456
435
431
417
438
431
433
450
435
468
435
423
430
432
460
480
462
457
480
445
438
427
451
473
493
489
478
478
475
465
476
459
507
463
445
484
489
483
472
462
482
500
500
518
511
519
518
478
474
473
481
482
476
472
479
491
533
478
457
444
449
480
470
510
473
465
481
457
471
408
456
483
455
436
432
411
412
412
420
464
478
496
514
519
548
567
585
600
572
523
463
340
334
332
333
334
337
351
389
439
488
516
553
534
520
503
482
517
523
521
538
508
563
568
558
545
514
514
543
526
514
505
532
542
515
525
524
505
527
530
529
531
524
538
514
528
541
545
582
584
563
616
584
600
601
581
595
605
619
647
610
632
620
634
651
643
638
625
616
660
655
640
640
635
665
683
685
682
658
671
651
626
619
587
590
577
557
540
498
489
478
470
452
428
424
413
398
406
389
434
398
378
364
355
361
400
397
385
381
405
428
425
395
406
412
448
444
416
418
396
402
403
406
416
395
382
392
396
425
430
441
442
420
436
485
432
469
443
462
456
450
470
451
457
473
445
448
438
431
425
415
442
445
430
448
445
465
465
441
460
447
430
462
420
420
427
447
478
466
473
454
430
435
423
427
423
425
466
467
436
426
448
435
457
443
458
449
456
441
407
422
460
467
539
470
480
487
466
481
460
439
447
456
504
458
465
478
464
478
460
452
457
457
493
488
464
467
442
448
449
457
487
511
509
505
493
515
522
521
534
534
529
516
512
545
537
529
516
499
501
483
471
491
454
463
438
408
414
422
453
495
472
447
431
439
461
453
469
457
504
457
421
436
460
468
491
485
511
568
568
569
627
598
578
496
414
343
334
333
334
333
336
353
442
475
526
555
508
573
528
521
560
529
546
532
528
536
500
503
496
498
516
508
483
475
485
533
543
560
536
527
565
554
540
574
526
537
543
535
536
540
577
590
575
591
561
549
572
571
586
567
565
582
563
570
589
615
638
629
622
628
628
667
682
658
678
685
702
687
672
681
669
682
683
656
632
613
630
608
565
545
528
492
493
467
472
452
410
440
437
426
419
390
407
418
422
406
359
387
443
435
391
381
413
384
384
422
403
412
416
405
397
374
385
398
386
400
401
400
424
430
419
407
423
457
429
411
409
414
435
438
416
419
410
441
444
441
450
430
446
429
415
432
413
427
448
439
460
449
455
461
428
416
410
411
437
454
431
432
423
451
432
408
411
417
452
447
441
437
407
434
443
448
475
453
465
470
457
471
451
467
458
451
457
495
486
476
480
429
410
397
433
439
449
450
434
511
458
437
447
442
483
494
464
471
470
522
467
440
449
450
459
449
492
470
475
481
473
460
459
471
486
522
512
504
509
455
465
456
475
500
516
522
523
514
568
483
482
475
467
472
449
450
460
446
470
443
476
452
434
444
431
501
462
428
405
404
419
457
457
466
475
497
553
553
556
576
585
622
563
518
368
337
336
334
335
338
337
353
422
489
493
509
519
516
495
515
521
521
534
523
530
524
516
538
524
517
535
543
538
525
524
537
530
551
544
505
522
530
544
544
523
535
520
524
556
561
558
552
535
582
576
580
617
559
604
616
609
590
571
623
633
623
627
622
633
648
692
656
650
667
677
651
647
650
664
691
657
656
664
659
672
677
608
595
584
556
496
486
472
452
460
438
419
401
387
416
416
422
427
387
384
406
361
376
370
395
424
418
417
412
393
399
398
399
385
369
392
392
393
406
386
385
385
401
420
420
445
436
421
402
385
423
430
444
454
431
443
446
433
429
414
428
441
417
426
443
436
444
420
416
402
396
436
445
448
445
428
432
400
397
439
429
505
465
454
495
449
434
435
424
493
452
465
458
449
457
442
477
444
439
443
441
457
471
445
430
419
407
436
439
463
480
451
478
477
469
459
431
442
496
468
481
449
441
439
431
434
428
448
458
436
450
453
446
454
430
426
431
438
481
486
459
472
501
502
485
491
482
491
530
527
518
537
526
518
554
503
492
487
485
507
479
482
451
457
458
447
453
448
445
452
469
467
456
444
462
469
463
465
432
456
463
453
457
441
460
440
428
453
471
498
510
536
547
559
598
610
519
413
338
332
334
331
335
337
347
449
496
491
515
522
558
547
535
541
491
523
558
520
522
504
516
509
493
517
527
537
585
530
543
540
549
592
530
547
568
562
566
536
544
548
545
567
560
537
562
567
599
591
566
574
547
561
580
582
600
585
598
645
633
656
640
630
658
635
640
631
652
683
678
680
683
672
685
694
675
656
653
682
645
601
599
557
564
560
525
524
501
493
486
444
430
402
389
413
386
389
388
377
399
380
376
353
401
401
406
432
418
385
395
384
386
435
413
432
474
427
432
423
422
411
416
433
416
416
414
391
404
404
448
385
373
401
418
486
449
427
408
383
386
417
427
447
437
437
466
471
453
452
428
458
470
443
446
421
415
429
416
414
396
411
438
430
448
429
427
434
410
408
411
415
451
414
444
468
461
525
496
429
448
447
463
461
465
481
460
470
460
427
438
420
428
437
429
421
397
392
436
436
509
464
436
476
476
462
452
452
478
501
464
462
449
492
494
472
473
456
460
483
455
469
443
440
455
442
475
480
511
518
507
493
512
528
570
522
500
497
500
502
468
469
480
434
441
443
439
428
410
440
441
427
467
419
421
436
442
461
455
455
449
424
431
480
436
466
535
538
545
559
592
611
627
607
490
417
335
332
332
333
338
341
381
408
447
468
503
524
539
576
558
551
528
534
511
514
522
514
502
492
529
554
544
537
527
514
549
532
543
510
512
541
526
510
533
538
570
567
579
597
580
591
577
560
584
594
588
583
570
579
573
613
617
605
602
610
622
638
635
637
646
630
654
656
668
671
650
691
713
710
749
682
685
696
676
656
616
607
589
558
591
530
527
488
498
462
459
443
503
419
401
386
371
397
407
402
408
405
431
421
395
390
391
423
411
385
398
400
446
408
429
367
360
381
417
450
420
402
391
396
383
392
418
439
448
442
446
450
436
451
415
417
434
427
440
417
393
430
420
442
438
431
430
408
413
464
412
400
379
391
418
433
455
426
429
468
444
418
410
409
451
450
434
440
444
471
452
468
439
411
430
418
403
414
435
450
409
392
412
422
432
460
430
462
469
461
466
445
445
456
447
452
447
469
541
463
482
467
426
429
416
435
446
437
442
414
439
458
446
461
458
442
480
474
495
473
468
499
492
482
462
466
502
507
507
504
498
496
481
480
493
491
512
501
460
464
459
506
494
467
440
450
466
467
436
436
421
428
446
415
420
440
451
469
452
449
424
449
486
469
448
448
459
498
516
532
564
600
614
613
572
484
375
337
331
334
335
336
379
397
440
485
510
532
555
519
514
502
483
505
503
513
496
486
517
524
545
556
551
580
589
550
543
520
551
595
544
537
516
534
544
532
599
527
524
536
529
547
548
558
592
582
547
561
579
593
591
666
655
619
645
631
613
630
632
658
658
652
666
701
660
668
657
651
642
678
704
684
680
662
638
646
622
666
619
594
598
572
554
528
495
482
449
421
412
395
426
429
415
384
392
373
374
373
390
388
381
404
366
359
356
370
411
420
407
399
404
437
410
399
387
397
436
423
432
429
423
441
426
412
402
441
439
429
405
406
408
428
409
401
421
410
411
422
436
458
441
411
423
409
431
429
426
434
433
485
436
423
451
419
406
420
408
421
415
401
396
386
401
397
419
441
440
450
479
467
444
424
439
486
445
429
436
439
459
435
433
436
428
436
444
434
424
421
450
430
415
435
470
500
456
461
463
465
477
473
457
457
483
460
461
451
456
455
449
467
456
440
444
446
476
466
446
434
407
441
475
462
480
451
483
509
495
491
494
483
482
472
496
482
490
526
518
516
499
499
502
528
532
511
484
491
472
449
442
448
472
463
491
460
478
486
481
472
452
456
491
486
442
505
431
455
467
453
450
459
460
475
477
503
532
552
577
586
584
589
550
461
357
336
332
334
332
337
344
413
460
496
524
533
529
525
535
540
512
524
521
541
550
523
571
535
492
526
504
507
516
538
578
567
560
547
521
540
557
528
575
568
564
562
547
557
542
559
570
562
582
569
574
575
540
556
561
579
631
608
620
636
636
657
647
644
656
665
680
673
715
681
711
723
682
666
667
668
690
695
666
653
621
593
574
550
566
562
545
554
500
482
461
439
478
438
440
428
393
389
364
368
368
355
368
389
392
389
369
390
374
350
359
358
397
404
391
391
409
438
467
401
394
394
419
445
414
423
439
454
451
423
418
401
396
426
420
417
412
395
403
435
409
427
428
448
431
465
461
444
441
445
428
452
430
425
423
429
425
411
460
480
415
416
420
415
432
416
388
362
378
425
442
440
488
420
480
472
446
438
415
423
423
417
416
427
450
471
440
452
441
430
453
448
462
443
415
428
406
416
425
428
469
461
466
530
472
496
473
451
464
471
487
464
448
470
461
478
480
459
447
443
461
467
452
464
483
440
473
453
459
496
465
474
490
480
494
472
490
505
513
526
497
516
517
496
508
496
543
490
492
526
492
499
516
493
476
445
451
476
459
433
447
470
495
485
457
452
451
502
484
458
449
442
454
454
443
431
413
409
406
397
438
469
521
542
548
588
583
597
575
495
422
341
333
335
332
334
336
348
427
478
539
530
527
545
524
507
514
515
546
537
517
535
492
527
520
521
546
529
538
563
605
554
548
536
568
558
552
572
543
578
559
538
529
496
534
537
544
551
537
587
549
524
543
557
602
626
590
608
614
628
620
607
615
625
636
658
649
692
659
661
685
701
659
673
667
687
667
651
639
612
616
611
594
599
575
554
547
532
519
482
464
442
435
438
408
386
391
432
398
367
373
371
356
366
363
355
374
361
343
366
356
396
404
397
390
404
445
458
412
405
399
430
423
386
408
398
408
408
401
413
435
397
426
425
412
406
425
408
386
414
430
431
437
431
452
444
463
440
442
428
461
440
433
436
437
459
445
443
443
460
413
418
431
432
408
410
391
389
462
428
430
423
419
473
452
444
433
424
466
468
452
434
426
449
451
442
463
443
447
424
404
410
412
428
453
437
423
432
435
472
439
446
469
512
538
465
457
452
446
471
465
451
456
436
467
470
446
436
446
476
485
468
468
464
450
461
447
460
453
446
497
484
498
495
506
492
485
484
482
454
490
499
499
513
550
499
479
471
501
501
529
528
516
483
453
477
464
455
503
462
471
484
464
460
438
444
440
423
438
451
467
471
501
434
432
402
438
456
449
456
436
455
464
478
521
556
619
636
617
606
512
403
339
330
333
331
353
342
391
467
496
507
529
510
517
518
519
535
517
499
475
513
538
528
537
553
515
538
554
533
531
521
537
556
541
545
560
546
544
520
520
568
516
547
558
543
534
536
546
527
518
541
554
598
599
572
602
606
664
624
608
621
628
644
646
635
699
662
674
690
674
661
642
661
676
710
661
644
626
649
640
643
638
612
606
615
579
559
511
501
491
469
446
404
406
420
416
428
389
395
375
352
369
367
356
367
351
347
348
344
407
381
397
385
395
423
406
392
387
387
439
431
390
401
410
439
433
404
410
387
420
448
427
411
387
401
405
396
424
426
427
479
406
434
431
439
474
434
448
464
449
443
417
430
435
430
457
447
412
430
428
452
442
429
445
420
442
429
417
430
402
420
516
457
470
443
432
470
465
436
407
411
446
437
434
450
428
426
446
426
467
440
461
462
436
431
474
437
445
436
471
472
455
453
438
444
443
455
454
480
451
467
457
465
451
446
447
445
529
486
466
467
451
454
456
491
477
498
499
506
492
501
494
495
487
459
470
476
479
512
507
516
502
498
511
501
509
573
516
526
518
500
483
478
525
525
524
515
557
529
506
469
466
443
492
488
535
482
478
496
484
457
451
437
428
459
448
450
437
421
435
427
439
472
524
617
584
614
650
656
696
547
447
379
364
333
332
335
340
348
392
447
514
546
509
538
529
506
492
477
467
501
497
518
523
503
553
586
538
532
537
537
542
539
516
487
501
509
504
530
523
516
551
523
537
519
588
526
493
514
532
557
592
571
568
598
589
595
575
572
620
606
630
612
604
620
629
672
657
639
634
635
672
685
668
656
635
634
658
654
671
661
651
673
620
601
576
550
547
532
529
499
447
451
431
417
418
398
420
385
384
400
397
410
386
368
353
343
340
350
406
388
374
404
416
408
396
385
373
404
391
379
375
433
454
412
408
415
387
423
458
434
428
418
437
419
430
415
415
435
415
417
473
448
456
453
423
479
453
449
409
399
419
445
430
461
461
450
434
414
428
416
419
431
403
454
422
424
448
436
464
470
459
505
447
444
480
439
434
414
435
466
444
437
423
419
496
431
450
456
445
456
439
411
418
425
495
493
470
492
445
476
484
453
495
462
483
478
455
473
477
473
474
450
451
450
460
491
483
481
478
463
478
476
481
504
518
529
526
527
584
510
528
498
489
500
491
495
478
425
482
443
479
439
443
457
438
448
464
434
406
393
406
440
440
444
416
432
484
471
458
472
504
572
579
581
617
652
651
615
463
365
332
333
331
332
370
337
357
411
443
470
490
514
532
503
564
545
533
540
515
516
532
512
516
501
516
549
505
534
536
507
509
502
519
521
497
501
479
517
526
503
551
552
554
599
575
553
550
542
585
588
612
566
556
578
567
561
614
584
601
652
655
635
619
640
636
608
615
628
660
719
688
676
661
669
689
661
662
663
664
663
612
584
569
546
553
519
481
443
423
454
450
452
442
398
394
420
357
373
368
368
378
382
388
383
377
382
386
412
382
357
384
432
376
382
381
408
383
394
403
383
415
415
388
373
358
400
408
435
431
427
457
449
479
418
400
411
428
396
391
448
420
445
427
432
408
391
417
420
434
444
438
452
424
408
415
415
514
449
451
461
448
468
475
439
447
451
450
451
422
443
431
449
462
437
414
409
451
462
440
438
426
402
431
476
447
473
498
489
488
470
472
458
479
492
488
474
454
486
486
459
438
415
413
430
428
508
452
436
449
418
418
415
422
476
501
470
496
518
514
499
489
491
515
545
540
500
519
514
525
520
495
539
484
498
495
480
475
440
434
434
424
443
431
430
448
462
485
459
447
464
457
445
490
436
464
473
461
469
453
463
433
424
452
460
488
563
509
518
522
533
495
395
338
331
331
334
331
336
341
415
485
500
496
491
479
514
489
501
512
487
514
519
515
512
496
513
493
480
502
514
539
546
510
555
597
568
564
530
540
556
557
550
531
533
540
589
572
561
534
541
552
596
595
577
588
559
584
593
618
608
597
606
627
622
643
633
644
675
674
685
655
662
720
694
693
687
684
685
679
707
725
639
638
594
549
532
527
543
556
489
488
531
472
461
416
413
388
387
385
360
361
359
372
394
381
385
362
370
380
357
364
372
383
390
371
372
394
424
445
434
429
430
418
416
402
417
439
426
417
422
461
404
392
401
418
410
422
426
435
454
433
427
409
401
430
422
427
434
427
456
444
445
440
418
464
462
439
435
402
409
427
418
422
420
432
428
424
448
432
433
435
400
458
410
431
521
456
464
471
468
481
458
447
466
465
482
470
518
471
454
458
449
418
430
436
457
464
456
440
415
415
431
417
459
472
455
482
478
476
457
440
454
459
459
457
437
443
423
443
450
459
455
453
450
455
428
435
441
426
462
441
470
510
519
501
510
529
537
493
490
493
511
536
513
509
520
553
541
487
480
451
423
446
439
471
445
422
421
437
428
455
451
469
461
508
491
464
452
451
434
459
449
454
457
476
500
508
525
580
568
574
564
488
413
339
332
332
329
335
338
367
470
463
552
638
572
559
526
547
568
537
516
502
499
526
519
525
518
498
536
538
536
534
507
529
503
497
521
528
565
557
550
588
576
595
577
548
569
625
583
592
546
575
568
571
592
576
604
578
590
615
595
593
614
601
630
631
653
655
667
687
700
740
707
681
697
703
700
695
659
665
666
644
649
667
603
585
559
548
496
489
500
475
444
412
408
407
414
407
413
411
432
414
394
381
382
417
398
377
394
374
388
384
370
375
364
383
396
387
398
388
384
383
373
425
388
397
418
415
490
437
432
491
425
424
435
432
451
452
441
436
410
430
437
410
429
429
474
490
424
413
390
403
417
415
505
442
490
481
459
450
445
436
474
434
467
425
435
480
450
420
425
400
425
427
426
426
412
429
415
394
424
407
445
473
436
456
459
453
461
431
421
438
448
466
453
493
470
463
472
452
425
426
422
449
443
433
432
398
432
432
434
457
454
452
483
476
479
431
434
460
456
463
438
448
486
475
468
458
450
454
431
433
445
428
457
450
432
436
495
480
480
452
449
472
508
507
520
482
465
475
496
476
503
508
494
504
487
523
487
518
579
524
520
499
460
455
452
458
484
461
496
462
481
484
459
467
455
456
525
464
457
466
449
466
460
469
470
428
455
461
483
515
502
516
510
531
616
626
637
594
509
462
344
370
332
334
339
387
405
443
461
506
524
524
541
514
506
523
520
515
501
506
538
561
493
531
572
564
558
548
549
543
567
541
526
549
552
569
541
535
551
535
560
558
545
545
557
552
555
541
565
563
565
574
552
601
586
591
660
643
651
650
641
690
648
686
668
700
684
684
681
671
699
676
641
650
681
680
697
686
638
610
600
595
568
537
519
515
521
535
522
475
447
427
436
413
405
427
407
439
398
383
369
360
397
404
390
394
412
397
376
367
367
380
418
416
406
435
424
470
458
393
427
433
428
438
409
390
439
402
439
410
406
416
412
434
418
429
385
391
412
417
423
455
423
449
468
443
445
422
422
461
444
431
408
439
428
418
419
416
417
432
455
420
411
406
424
394
419
415
422
464
453
435
434
423
438
422
405
485
445
454
449
428
455
455
458
465
449
424
408
402
444
436
432
424
398
423
427
443
459
446
457
486
550
490
460
463
455
432
442
424
457
489
498
496
493
501
494
477
497
501
496
512
473
456
460
478
542
513
500
513
504
498
464
433
428
437
484
476
435
454
452
478
464
440
449
414
407
425
429
439
428
434
435
421
447
463
496
566
561
582
595
617
660
624
644
527
418
345
334
333
335
337
341
366
413
513
489
543
520
508
517
488
521
501
497
526
518
531
586
544
539
513
502
555
542
528
522
518
578
564
518
521
526
508
510
521
592
533
549
541
508
526
521
581
575
543
598
590
610
617
588
572
583
592
589
568
596
625
630
643
627
617
624
628
671
683
668
675
651
653
666
651
671
678
679
661
618
636
596
569
567
521
506
482
482
486
463
448
422
404
409
383
375
388
431
395
383
358
348
349
379
394
438
382
363
373
390
417
423
377
403
417
393
404
419
422
447
410
386
366
371
415
398
430
390
431
388
395
390
408
415
442
414
420
450
429
426
408
406
445
434
434
426
431
443
436
424
437
400
409
411
411
469
412
401
386
390
418
423
430
434
411
468
467
474
447
423
423
416
408
413
387
409
434
431
456
440
478
428
400
428
425
434
446
397
412
431
446
476
458
453
516
485
520
493
475
506
490
516
493
476
499
496
509
502
483
469
463
490
503
474
459
435
412
422
401
461
443
438
466
465
447
441
416
445
456
468
461
420
455
466
451
450
440
459
431
438
491
508
514
524
528
548
560
587
561
484
402
338
332
335
334
335
337
404
456
465
475
485
496
518
512
558
499
484
523
522
506
513
498
523
536
482
520
488
506
520
531
560
554
555
557
513
530
566
525
526
512
528
530
520
545
527
518
548
550
583
566
553
561
534
565
568
589
610
606
618
621
638
624
654
686
662
645
630
622
650
693
677
671
665
660
687
676
670
667
639
635
601
560
545
526
553
551
493
490
466
484
502
452
400
375
379
386
374
435
405
405
397
369
362
353
363
394
380
375
371
363
368
367
373
396
403
403
408
413
463
402
424
409
406
423
412
445
442
429
432
416
403
396
386
405
399
394
420
394
376
387
398
437
440
448
425
438
478
452
421
422
412
456
444
440
413
392
420
433
414
421
414
414
424
412
427
418
411
422
406
426
443
445
464
497
478
480
464
474
484
432
455
447
439
468
445
466
455
472
464
416
424
434
441
434
408
405
402
418
458
452
465
445
452
559
483
464
455
458
524
516
518
507
502
526
536
494
500
487
492
496
494
553
499
480
445
406
420
440
441
447
429
453
460
463
481
446
449
459
478
513
447
431
444
440
469
453
434
422
423
466
478
468
535
487
497
511
530
567
537
471
375
335
333
334
331
333
343
416
484
467
530
533
556
535
524
546
553
525
530
515
538
563
513
500
514
517
536
550
559
560
576
575
561
541
525
549
572
517
501
509
556
561
550
544
548
558
577
549
539
547
543
576
552
553
574
580
625
615
615
633
673
702
661
640
650
663
650
669
656
682
708
671
697
664
668
669
673
727
674
646
612
585
602
584
574
588
515
533
520
485
482
457
447
429
427
400
392
424
448
400
393
381
374
394
380
393
429
392
382
355
352
356
349
406
423
393
422
476
445
427
426
412
416
440
426
397
382
370
401
426
395
391
394
402
422
411
422
397
384
408
413
439
436
437
440
445
460
445
426
445
435
452
447
420
438
414
410
426
413
439
426
420
427
418
430
443
424
418
399
430
475
487
448
426
464
491
448
467
440
446
493
476
438
465
437
470
453
450
456
421
427
419
422
440
433
432
454
407
450
454
474
470
441
521
486
473
473
453
479
503
495
481
457
460
456
451
490
482
449
458
456
495
498
482
461
435
445
467
521
483
482
475
476
505
504
489
500
538
544
538
509
494
512
497
552
513
506
524
521
523
532
516
524
496
455
447
440
464
476
476
479
472
492
495
461
462
453
459
467
435
441
443
442
469
433
432
419
437
483
473
485
514
513
531
537
553
591
574
509
419
340
337
332
336
337
342
416
428
466
526
530
535
513
520
527
511
514
502
495
522
512
506
497
497
544
534
562
551
539
581
573
554
552
525
582
563
543
546
553
596
581
569
550
549
542
559
551
565
555
554
560
537
552
571
562
599
587
620
649
637
660
653
643
675
680
738
689
688
704
694
707
703
665
678
674
688
688
665
648
611
602
630
597
574
563
519
547
525
497
462
433
446
490
421
406
370
363
354
355
380
369
388
379
368
385
374
387
389
349
355
370
439
426
399
389
405
427
431
399
400
381
409
438
402
401
430
427
458
443
425
402
388
467
427
402
403
392
391
392
400
434
456
437
488
451
460
436
462
437
429
475
456
421
444
428
431
406
396
472
408
425
472
434
458
448
408
386
385
436
456
454
477
458
492
492
449
437
423
448
489
466
445
429
423
456
454
450
447
419
510
470
466
453
440
465
437
447
437
440
473
464
470
496
465
479
462
445
480
489
498
443
421
435
433
461
487
467
453
463
475
520
543
528
481
449
463
453
450
494
484
525
536
521
529
499
507
525
529
560
480
489
538
481
504
494
485
487
478
482
465
469
497
460
426
414
414
467
489
474
476
470
499
482
455
449
451
490
464
421
442
474
464
464
432
444
458
503
556
559
574
587
598
626
598
562
476
362
336
332
336
337
336
361
394
450
497
503
535
543
542
535
507
518
514
505
549
517
524
525
490
478
461
484
510
524
548
527
528
568
550
529
528
525
520
508
507
520
546
584
565
546
547
527
559
589
553
554
539
538
532
545
549
551
585
622
587
615
636
630
644
611
612
633
637
659
658
684
691
682
698
684
646
641
675
660
634
606
583
542
536
538
519
522
511
482
488
467
472
416
419
433
429
405
369
365
406
403
405
398
376
368
359
363
377
363
377
366
346
356
362
400
407
379
380
408
468
412
384
393
383
387
407
376
392
397
406
428
394
411
395
399
443
443
433
427
414
412
394
405
440
429
449
450
478
472
442
430
430
431
463
447
427
440
411
427
419
426
449
417
434
451
470
481
443
408
382
403
424
421
449
439
448
502
485
466
453
428
467
484
460
433
462
503
464
445
452
432
415
439
432
497
445
453
472
432
415
425
432
487
468
463
494
480
503
467
442
493
469
477
452
447
473
459
503
493
471
483
486
486
481
465
482
486
481
494
480
498
514
512
508
499
501
501
468
461
450
455
451
417
462
461
435
439
411
410
411
416
475
465
459
458
416
399
402
475
443
472
468
497
525
570
576
590
575
527
464
350
336
334
333
334
337
342
370
418
477
500
497
504
534
543
493
483
491
504
538
537
528
545
527
506
515
493
487
495
508
555
581
558
554
544
567
534
513
544
521
537
529
508
501
491
527
550
562
593
551
577
623
583
579
557
556
597
587
611
578
574
613
616
625
632
617
676
647
642
649
644
667
648
639
664
654
681
677
655
688
677
649
611
547
545
533
536
494
454
466
466
452
435
403
373
376
367
403
387
375
380
351
375
378
376
394
383
404
434
410
401
377
394
409
404
413
379
383
403
406
438
410
407
409
401
427
435
425
443
402
370
376
393
422
411
415
423
460
478
462
429
431
441
479
470
418
434
412
429
437
426
431
438
426
450
444
443
419
429
420
391
408
420
440
478
463
474
459
447
443
435
452
484
480
444
431
422
430
424
450
453
413
423
435
431
436
445
438
416
411
440
413
428
435
428
479
468
474
461
438
484
481
513
434
429
478
460
441
441
421
439
460
432
436
437
466
475
436
452
439
528
496
464
489
462
469
506
477
461
476
483
509
490
499
519
495
508
495
484
503
507
544
540
514
509
491
485
490
485
540
499
490
530
495
510
488
451
453
490
440
448
435
488
488
472
455
417
414
414
426
452
454
462
471
437
411
415
424
458
482
493
483
498
607
570
604
572
516
445
338
335
331
330
335
340
380
433
463
527
534
526
532
508
510
503
516
537
541
577
542
545
580
553
538
545
530
553
543
534
552
562
574
569
545
545
518
524
561
547
562
540
531
510
506
556
564
568
583
550
609
623
605
582
565
601
631
608
598
602
674
671
610
628
641
656
640
624
672
663
669
709
678
682
689
690
718
693
668
687
685
666
618
574
573
555
548
496
456
501
450
436
440
409
387
378
400
463
409
392
354
341
350
358
380
435
389
440
443
421
419
388
406
411
425
429
386
408
408
393
405
401
412
400
400
434
462
411
415
390
375
373
379
417
424
437
428
474
451
439
417
422
429
474
443
419
436
426
444
465
431
441
459
445
458
423
422
410
435
429
400
417
398
403
431
428
456
457
471
470
463
453
462
469
471
457
463
494
420
441
429
419
455
459
487
507
473
443
411
435
447
451
457
436
469
501
499
501
465
447
459
446
458
467
469
504
476
450
443
432
475
482
460
473
449
467
494
421
439
453
473
478
447
477
482
490
490
464
464
444
447
473
460
494
500
490
498
472
454
446
453
504
484
475
471
452
485
498
517
545
530
520
526
532
534
507
502
499
544
505
486
474
454
424
435
443
451
462
449
459
453
435
452
426
398
417
480
470
512
470
445
458
497
479
472
521
478
542
585
545
580
613
648
618
487
383
336
333
334
331
335
376
357
446
451
502
568
558
550
525
551
572
541
550
531
525
547
528
524
517
512
542
523
528
539
493
545
520
539
552
525
522
492
509
546
552
558
554
587
610
600
593
578
549
589
596
581
560
551
592
603
586
590
588
586
631
629
639
629
624
618
581
612
624
651
678
669
727
717
687
688
657
653
665
681
715
633
615
615
589
577
544
497
475
458
479
471
423
404
380
376
368
358
371
379
392
412
402
405
428
385
394
392
423
393
376
409
406
391
402
386
396
370
379
401
399
429
425
427
402
364
387
380
378
431
430
463
472
444
440
420
415
434
401
470
430
439
449
421
418
414
412
456
464
440
429
410
433
407
393
433
431
476
427
427
468
445
436
427
400
439
449
451
433
431
452
447
419
427
398
400
402
414
461
465
427
409
384
430
435
447
479
453
482
486
468
491
465
439
440
474
445
443
483
494
452
452
440
460
446
437
452
447
440
455
417
410
439
475
510
505
467
490
496
517
501
497
506
545
545
532
510
537
525
524
528
489
490
482
474
511
468
470
447
412
436
431
467
450
445
446
456
509
457
457
459
458
473
455
428
439
420
404
430
425
448
470
441
492
514
539
569
564
581
632
547
496
394
339
332
335
337
336
337
350
369
438
463
468
499
540
554
544
521
523
531
510
519
509
515
520
489
490
468
514
516
520
548
539
582
559
520
523
520
541
564
561
555
538
542
579
549
575
556
525
547
553
586
612
601
577
545
548
572
622
592
589
622
683
636
642
627
633
678
686
679
654
655
695
682
686
683
674
678
678
675
680
648
653
628
573
542
513
521
531
506
493
468
467
468
414
407
406
431
416
371
366
426
368
399
378
367
363
364
397
380
372
372
365
376
378
372
396
404
412
421
426
441
439
426
415
412
428
400
385
410
431
413
398
394
411
402
405
401
400
432
421
410
386
387
428
450
454
450
432
466
463
443
446
421
426
412
383
406
424
455
460
418
427
413
426
442
430
440
422
409
423
390
399
419
430
483
444
445
465
460
452
429
414
453
455
477
470
469
528
459
464
462
427
439
439
442
467
443
420
396
397
428
403
478
504
434
484
510
462
468
450
463
474
463
464
431
431
433
438
489
459
461
479
475
492
474
483
515
430
459
465
481
526
502
486
501
564
507
469
459
467
464
480
432
432
451
453
474
462
445
423
461
444
452
427
470
413
419
430
437
455
447
446
475
516
540
532
536
579
583
591
508
369
337
332
333
332
334
339
348
407
483
500
542
543
506
491
485
487
498
514
528
535
577
573
521
511
503
535
582
565
539
528
526
539
521
524
533
512
564
560
565
566
549
603
534
534
538
538
612
576
580
600
568
596
597
581
614
625
616
617
580
583
596
619
662
642
635
652
664
700
687
675
682
653
669
672
675
712
701
706
704
678
672
621
600
606
578
552
500
533
491
448
447
413
406
412
396
409
380
362
393
424
395
356
357
412
426
438
414
408
434
438
410
397
391
441
415
405
376
391
441
413
391
409
390
391
402
382
438
409
380
390
428
411
433
436
438
437
442
461
496
477
453
447
454
433
453
466
452
452
425
456
406
410
431
428
436
441
423
430
398
418
437
432
441
430
440
485
460
443
442
443
516
481
450
450
458
490
470
437
439
439
431
442
429
434
417
428
428
405
443
451
436
480
431
459
475
459
470
449
452
471
468
468
438
415
427
421
453
448
418
477
418
442
448
442
449
429
443
509
474
555
508
498
542
526
511
486
479
495
530
517
495
534
517
501
491
488
460
451
426
430
464
419
434
433
402
419
422
465
478
438
432
455
469
460
427
454
414
420
452
467
494
490
501
536
545
572
553
534
505
405
337
330
333
333
330
342
356
427
495
540
569
570
540
545
532
524
561
545
518
529
506
517
518
525
549
520
563
545
555
568
550
525
502
491
543
545
552
550
565
603
583
567
561
539
584
614
585
565
544
558
576
628
589
579
575
618
633
636
633
635
658
624
608
628
646
699
705
703
732
712
736
705
684
744
705
708
690
672
675
645
671
626
574
560
546
547
516
472
465
451
420
425
405
425
455
417
433
425
422
424
398
401
404
401
389
358
388
401
381
378
356
367
376
375
422
408
409
407
369
357
368
376
422
481
433
426
437
465
442
435
424
426
457
480
413
442
440
458
448
406
428
400
426
435
415
423
400
388
388
380
402
428
449
441
432
453
440
420
427
441
452
446
424
488
460
462
462
439
455
436
420
434
454
427
422
395
386
378
386
399
415
454
420
418
423
417
434
423
421
460
458
431
436
455
494
473
460
452
469
445
436
445
428
412
434
417
414
445
455
488
495
510
506
521
533
535
490
494
499
500
559
500
536
533
527
538
490
451
453
447
479
486
426
416
388
468
443
446
463
432
430
465
451
456
426
447
487
455
464
442
444
456
473
515
543
562
568
580
623
643
583
530
411
337
334
372
334
334
336
362
451
517
524
508
518
538
577
565
507
549
488
509
531
564
524
520
511
548
539
542
532
533
523
489
496
514
528
564
570
585
576
557
555
540
553
590
569
559
596
617
566
563
574
618
545
568
577
590
613
592
606
583
580
618
624
656
655
653
695
684
691
665
647
691
701
675
649
644
675
676
672
653
623
621
622
576
552
518
517
510
454
440
431
443
486
457
453
449
431
445
402
374
378
388
408
381
371
393
372
423
362
344
360
366
435
417
386
381
360
365
384
378
385
398
425
431
420
441
429
422
433
434
415
414
402
456
462
435
425
403
431
420
415
425
411
417
416
382
384
384
395
429
445
431
412
402
416
411
417
398
390
457
405
417
445
464
478
449
436
411
402
438
424
402
410
383
397
393
403
423
436
464
436
437
469
463
455
443
408
441
433
433
456
454
508
462
467
476
433
421
439
440
464
450
446
448
464
492
494
490
491
466
538
540
503
486
469
520
508
473
452
413
419
449
421
402
398
385
420
421
438
441
416
444
409
403
417
424
461
441
433
478
465
486
497
499
552
563
605
604
597
574
488
410
345
332
333
330
334
336
382
388
448
514
498
506
565
524
505
548
599
590
549
503
524
529
540
540
505
523
514
499
518
526
547
522
516
550
545
544
539
521
523
494
513
548
556
563
565
582
623
588
568
568
584
632
601
567
573
566
592
599
595
606
611
630
650
631
632
636
661
668
655
669
672
700
724
692
722
687
694
693
654
658
657
621
595
563
542
542
492
497
468
456
455
409
409
399
383
393
357
369
380
379
398
375
406
432
417
421
407
384
416
410
410
402
406
442
414
397
391
370
413
423
482
435
411
423
408
371
388
402
414
430
400
434
443
449
448
416
415
423
402
441
413
444
471
439
501
426
411
397
400
440
423
397
418
398
411
408
405
442
461
457
478
395
432
477
439
429
428
504
448
436
457
453
452
463
434
434
404
411
415
422
443
417
385
403
417
457
460
450
454
442
486
514
443
434
411
457
469
445
459
487
495
515
468
465
450
458
504
485
509
476
461
455
437
457
496
504
529
486
501
520
496
471
457
444
472
442
428
426
475
467
449
445
450
403
414
420
441
471
430
446
421
406
448
440
450
456
479
572
576
578
574
599
615
585
480
352
333
331
333
330
334
337
353
420
468
520
534
530
518
478
483
503
560
550
523
547
605
599
583
537
520
543
557
571
535
522
534
533
558
556
525
509
519
555
574
548
539
524
514
523
520
549
566
629
595
584
584
597
583
608
613
629
612
590
620
623
616
667
622
646
636
640
673
652
669
674
672
666
650
671
690
691
728
680
676
685
649
619
575
574
610
538
513
494
485
482
443
414
409
383
437
428
416
424
412
393
365
365
374
395
401
387
405
424
422
498
431
383
404
411
377
377
382
418
417
399
419
394
409
427
416
451
424
406
395
369
405
423
415
430
406
449
465
454
458
432
405
423
427
450
433
404
408
399
418
422
414
435
435
428
424
402
425
398
377
405
416
483
472
428
443
445
462
439
415
423
437
465
462
450
521
481
474
471
449
437
425
474
453
437
437
417
385
426
423
435
451
445
486
447
463
461
438
448
444
453
460
438
449
462
457
475
460
466
461
443
468
469
476
503
471
451
455
463
512
508
500
481
513
541
514
485
472
471
497
462
418
421
427
473
469
499
440
402
409
430
407
425
411
409
408
402
435
459
451
460
466
508
543
552
585
555
590
619
587
511
407
341
334
331
350
335
333
340
400
467
473
470
503
493
497
485
466
507
511
534
591
553
549
523
514
560
564
559
520
517
574
557
544
552
535
549
551
581
562
577
538
527
499
506
514
521
542
525
549
590
585
612
580
581
577
589
607
590
598
615
607
688
638
633
630
643
694
672
663
675
675
682
665
660
678
688
700
712
704
704
674
654
629
607
624
566
572
510
483
473
452
430
427
389
409
420
419
426
403
373
362
351
437
401
386
378
384
431
448
429
419
385
395
409
390
403
406
436
436
396
396
391
417
409
406
420
421
397
402
407
386
414
427
483
455
452
464
450
460
453
419
417
401
433
439
441
461
434
425
423
394
444
461
430
451
417
405
374
366
416
445
485
469
423
453
460
433
426
402
406
431
432
447
479
483
483
450
451
417
411
426
410
426
398
397
430
398
414
400
402
450
444
416
446
460
474
488
431
464
453
469
440
441
478
477
494
472
435
420
412
429
445
446
463
445
447
472
487
513
519
511
508
512
533
521
514
523
506
522
509
469
494
492
491
476
478
445
410
409
433
430
452
444
408
390
394
433
466
446
432
396
466
479
468
450
440
469
544
549
532
554
583
642
657
576
494
353
335
332
332
334
333
338
339
362
445
493
537
544
546
567
547
552
543
509
539
558
546
531
511
536
535
556
558
546
510
527
532
572
552
535
540
521
519
531
536
563
565
611
582
572
582
566
564
576
555
565
563
569
600
587
605
651
594
615
620
623
623
620
660
679
626
631
641
723
701
674
700
707
734
723
686
715
665
672
667
600
608
604
649
570
532
516
492
481
458
420
443
432
409
405
436
390
446
411
430
467
400
453
432
423
404
396
398
363
384
395
407
462
391
458
413
396
419
418
424
432
410
383
363
394
426
432
448
424
405
414
426
412
428
480
440
427
418
430
437
469
457
420
423
405
431
450
433
439
412
421
418
384
389
393
442
463
425
446
460
443
443
415
417
456
443
475
448
464
480
450
471
437
404
455
409
463
451
429
427
394
403
428
408
446
444
420
465
463
456
431
416
453
470
453
462
422
452
422
422
437
433
483
437
444
482
447
473
475
461
485
500
528
525
490
516
501
528
532
496
498
500
502
517
450
453
457
454
473
454
446
417
416
464
454
441
445
411
411
414
420
463
464
456
464
484
484
450
464
504
537
591
603
601
637
630
606
522
432
357
333
332
333
334
339
347
378
404
436
501
528
521
524
522
555
543
512
502
489
532
573
551
519
498
500
532
519
531
526
513
552
543
558
546
528
556
520
501
523
530
594
583
572
591
574
623
580
552
584
616
602
592
559
579
575
585
608
581
602
618
631
660
645
651
653
645
643
661
664
685
671
716
714
705
704
677
677
666
680
605
554
569
567
530
526
497
445
423
407
396
380
390
417
432
382
359
362
407
406
411
384
397
431
409
393
383
388
405
380
362
402
452
421
409
380
394
375
394
460
417
409
397
395
392
366
416
421
450
483
422
459
438
428
434
412
452
492
446
464
454
451
446
421
433
459
410
428
422
435
424
400
388
367
371
403
414
443
415
436
478
439
427
425
422
469
444
433
440
445
478
453
435
414
378
414
451
406
409
398
429
418
403
431
423
453
462
477
461
472
458
453
412
436
452
435
439
418
462
464
459
480
454
422
412
422
466
448
443
445
418
450
471
487
518
505
503
525
503
529
471
493
509
512
502
464
451
490
453
440
432
427
435
417
431
445
436
452
418
383
427
416
460
457
427
448
479
495
449
412
431
433
472
519
499
535
605
613
630
571
496
359
336
333
333
334
331
336
340
358
423
512
514
561
566
625
563
533
529
516
530
566
548
534
530
552
561
529
546
550
499
509
535
560
581
566
557
523
506
541
527
554
557
565
622
598
594
567
542
588
603
574
558
542
601
581
575
596
585
608
630
616
597
593
610
646
616
633
645
667
721
688
693
701
701
751
702
669
687
670
657
616
604
614
578
600
538
496
534
482
502
499
459
456
464
410
394
376
391
367
373
410
413
430
425
405
410
403
406
399
387
433
432
400
399
363
360
360
369
413
409
421
410
373
371
367
378
417
437
428
405
393
412
402
432
448
464
480
443
446
453
457
469
435
421
410
411
450
432
412
413
380
379
404
375
394
423
466
448
435
467
444
433
433
415
457
450
437
437
442
448
450
442
455
414
407
422
413
439
418
403
385
414
418
437
442
455
421
484
489
450
440
427
454
481
451
427
397
399
431
436
464
461
430
451
435
445
433
423
448
415
419
475
463
546
476
520
509
502
507
517
471
503
522
540
514
486
497
488
486
514
528
485
491
528
529
496
488
470
428
446
441
455
458
458
428
453
459
471
443
458
469
474
483
431
441
424
420
445
480
442
466
446
500
527
544
563
545
547
527
511
457
345
335
334
332
350
339
341
386
452
550
548
531
545
535
552
595
523
520
498
529
525
494
518
521
539
534
490
514
523
615
584
561
579
574
570
575
542
560
613
560
613
542
545
547
545
587
565
552
583
550
570
575
567
588
571
598
616
612
650
642
673
710
679
683
666
651
680
698
690
682
670
714
712
683
724
672
673
658
658
676
643
634
587
532
538
528
519
514
473
487
482
462
436
413
389
397
405
454
394
410
420
405
408
378
368
376
369
406
399
369
373
357
370
366
357
404
412
411
419
420
429
390
391
409
430
443
441
401
387
367
390
402
414
431
403
411
454
390
411
401
375
383
388
419
451
434
416
426
479
456
433
417
387
408
431
397
423
429
422
425
410
425
393
397
429
413
396
397
380
391
376
402
425
437
449
413
440
469
444
437
433
421
477
442
440
439
436
476
457
442
441
395
414
422
433
470
417
435
413
421
455
448
454
490
445
515
543
471
463
436
483
493
476
452
433
456
458
456
471
474
468
465
441
483
500
529
556
492
490
481
542
528
512
534
569
537
541
486
468
484
491
490
433
424
432
466
477
465
441
429
432
489
480
462
463
440
429
444
404
439
445
421
454
548
535
563
554
597
609
638
627
485
468
338
333
332
334
332
336
339
418
449
503
525
526
512
485
503
527
536
547
541
556
578
560
549
523
540
578
534
509
547
535
561
560
522
526
523
574
544
512
523
519
546
541
520
552
564
590
598
584
622
612
619
619
580
592
610
638
631
675
634
641
620
648
627
645
667
697
699
684
670
658
630
668
680
672
712
671
674
685
632
646
620
594
599
562
561
536
539
549
490
477
441
464
424
404
405
393
374
378
348
346
357
400
447
409
370
401
429
421
401
370
376
369
418
394
384
438
443
428
405
373
360
358
362
388
382
401
401
426
406
409
417
437
426
421
431
439
438
414
423
417
428
447
416
445
470
464
461
430
403
398
389
418
410
401
427
394
376
372
388
440
427
432
424
522
499
460
428
431
485
481
460
429
431
435
511
439
409
427
446
419
426
478
439
429
434
433
413
432
445
458
468
453
500
500
477
477
473
461
485
476
471
446
439
449
453
470
465
430
450
462
521
511
496
508
487
493
517
507
506
481
469
533
517
535
504
485
523
515
505
462
453
465
481
447
437
425
437
441
474
471
461
453
436
397
397
401
443
470
448
470
445
464
512
453
481
510
535
568
565
598
625
600
621
465
348
335
334
336
335
336
341
364
419
431
454
508
540
573
581
564
559
578
524
518
512
534
516
510
545
526
516
531
501
531
551
538
555
550
569
537
521
499
485
536
548
539
544
553
598
594
575
574
549
576
593
538
529
551
596
628
588
584
562
557
613
622
644
645
634
645
621
633
658
656
687
661
672
696
698
721
706
658
635
635
627
625
609
611
581
553
534
472
456
430
416
421
411
381
364
347
383
374
403
424
383
415
415
401
396
366
370
398
394
406
417
453
439
410
413
391
379
394
427
399
367
366
393
364
382
388
408
443
428
400
422
440
514
431
408
410
438
466
464
422
454
452
476
444
410
401
396
426
426
388
409
389
387
402
409
439
444
429
455
455
472
452
434
462
431
466
443
406
442
439
453
460
433
461
424
411
443
435
451
442
419
417
401
441
465
452
449
441
468
487
472
458
447
458
504
488
488
479
440
448
429
441
481
424
467
479
488
495
466
470
453
452
498
500
515
498
472
533
526
543
525
539
524
519
495
475
453
470
454
436
476
440
423
440
451
485
463
426
430
392
410
420
424
459
455
464
467
443
482
470
496
549
553
566
571
611
616
527
461
348
335
334
330
335
336
338
397
432
442
469
490
547
565
553
568
562
577
565
522
516
515
548
543
502
503
534
507
533
514
525
549
552
584
558
552
536
528
532
515
522
550
546
546
561
567
585
567
587
567
572
594
555
563
587
598
606
593
607
621
661
619
623
639
659
629
618
616
642
694
698
721
709
726
734
709
695
690
656
663
628
634
584
578
597
563
512
486
447
430
427
411
419
391
400
394
360
385
383
401
426
363
384
402
384
382
353
354
387
385
411
419
416
430
409
434
403
365
386
379
406
413
393
384
352
367
385
369
413
420
397
447
448
437
417
425
444
440
435
408
379
409
406
403
414
402
437
400
412
428
400
420
413
387
400
392
425
468
409
432
444
461
472
435
420
422
444
468
475
434
429
452
481
451
444
416
410
451
449
432
431
403
403
410
423
455
453
458
467
485
500
486
468
456
440
472
455
454
495
455
473
463
491
472
425
440
463
468
503
464
438
410
410
473
482
486
513
514
558
535
501
492
465
520
555
518
497
528
520
514
472
476
454
475
446
436
453
444
441
478
437
413
437
433
481
530
452
483
467
496
464
426
460
471
466
457
440
486
501
536
573
560
573
561
567
432
336
333
331
332
332
336
351
448
488
547
564
568
569
537
533
533
539
535
503
527
529
502
570
499
486
489
503
539
543
552
559
520
507
507
521
572
571
565
567
575
642
577
558
550
554
585
548
533
568
572
598
577
592
566
569
599
614
599
608
607
613
612
602
631
655
692
685
669
689
686
676
702
679
679
681
666
699
710
693
722
632
647
589
566
568
522
512
481
431
415
373
405
421
410
429
392
401
431
397
379
367
358
401
381
370
370
389
427
414
409
389
350
388
381
372
368
353
373
353
350
415
393
422
432
396
450
455
444
431
409
421
475
429
421
400
430
443
442
449
414
378
385
434
443
422
457
392
374
407
426
426
435
403
408
444
440
457
430
428
446
444
450
409
405
433
414
421
444
418
420
420
430
446
436
448
407
366
393
406
454
454
446
451
473
477
440
436
426
409
434
448
404
428
430
451
468
446
446
418
433
481
500
475
464
440
437
438
430
449
453
486
481
469
456
454
462
456
472
508
489
471
451
427
491
460
485
486
422
442
462
516
498
472
486
461
451
486
491
533
543
530
577
550
542
519
492
547
553
516
497
481
507
482
472
481
464
438
433
428
450
450
451
451
410
418
421
407
443
463
477
500
500
525
478
447
454
486
472
455
452
518
536
573
586
618
607
574
504
394
339
333
331
334
335
335
368
445
489
550
554
584
586
539
584
552
556
549
544
587
576
549
534
565
537
531
536
540
534
554
542
511
503
515
566
590
573
560
538
567
573
557
574
576
665
629
587
589
611
616
630
604
588
577
580
624
612
592
601
576
592
595
588
594
621
682
668
682
708
706
708
713
687
715
703
691
687
642
647
641
681
644
587
565
540
514
517
474
439
401
415
428
415
417
427
379
437
439
399
382
357
410
367
363
373
374
390
385
370
383
385
368
394
381
398
396
388
410
377
387
405
417
457
459
412
471
510
452
425
399
431
434
453
427
409
438
434
432
448
425
417
383
395
430
416
424
403
385
412
416
430
442
428
478
492
460
474
400
432
444
465
514
436
447
476
451
484
432
444
427
416
453
448
460
452
388
385
452
421
457
503
453
465
483
499
478
454
444
454
504
476
434
432
415
458
460
437
459
427
473
494
477
483
470
483
471
440
459
458
479
508
502
517
492
492
474
436
456
484
463
465
432
431
438
443
486
458
441
471
493
460
443
431
462
426
416
444
468
530
507
530
558
543
549
526
507
582
516
471
446
475
526
498
516
469
459
490