1050,1043,1027,1006,995,1002,1022,1040,1041,1019,993,986,994,1004,1009,1015,1017,1019,1017,1018,1013,1010,1009,1011,1022,1037,1049,1065,1082,1102,1124,1143,1159,1186,1211,1242,1270,1291,1295,1279,1254,1220,1172,1118,1074,1050,1025,1009,1001,1004,1013,1018,1018,1012,1004,1002,1003,1003,1003,1004,1000,991,985,990,1002,1013,1010,998,998,1005,1010,1018,1015,1007,995,985,984,994,998,1003,1006,1011,1008,1001,997,994,990,992,998,1011,1022,1021,1004,976,968,975,988,998,1012,1023,1024,1014,1005,996,996,1000,1002,1005,1012,1020,1032,1034,1022,1013,1010,1015,1026,1041,1051,1042,1023,1008,1009,1023,1033,1025,1014,1011,1020,1031,1038,1036,1032,1037,1037,1034,1017,1016,1032,1057,1066,1051,1032,1032,1042,1040,1028,1017,1010,1010,1019,1037,1038,1028,1010,997,995,1001,1013,1018,1014,1018,1020,1021,1022,1018,1018,1017,1015,1016,1014,1016,1013,1012,1014,1015,1018,1020,1020,1021,1025,1029,1031,1026,1019,1018,1016,1011,1005,1002,998,1001,1005,1014,1025,1029,1019,1010,1005,1005,1003,1006,1012,1015,1014,1018,1020,1016,1020,1025,1031,1032,1027,1028,1026,1033,1042,1041,1033,1024,1023,1034,1040,1043,1041,1033,1027,1023,1018,1010,1003,997,1000,1010,1018,1017,1014,1005,999,1003,1011,1018,1022,1024,1021,1021,1022,1019,1012,1002,992,989,992,995,999,1004,1001,1002,1003,1008,1012,1016,1015,1009,1002,1004,1010,1021,1028,1028,1028,1022,1008,993,979,979,997,1023,1048,1068,1080,1088,1098,1110,1134,1157,1176,1200,1221,1237,1238,1228,1205,1175,1132,1084,1040,1009,979,964,967,978,987,990,990,997,994,984,975,972,970,970,969,964,955,951,951,960,967,973,974,979,979,977,981,985,987,987,981,975,974,974,980,980,977,975,980,982,983,979,977,978,977,981,979,977,974,974,974,978,984,983,981,980,984,996,999,1001,998,1000,1006,1011,1011,1009,1005,1004,989,971,965,965,972,981,989,996,996,995,995,996,1001,1004,1006,1006,1006,1008,1010,1014,1017,1014,1012,1014,1015,1020,1024,1026,1027,1024,1016,1009,1005,1006,1010,1011,1011,1012,1021,1028,1043,1066,1082,1075,1045,1000,972,972,980,988,984,980,978,977,980,977,971,972,973,978,978,977,978,980,984,987,992,998,1005,1010,1006,1007,1006,1002,987,974,975,993,1024,1031,1000,950,924,931,962,974,976,969,973,978,979,973,971,976,982,983,983,991,1001,994,979,958,950,947,950,958,963,971,972,975,975,978,978,979,982,987,983,980,979,984,990,994,995,994,989,993,995,1001,1008,1014,1016,1008,983,961,949,956,976,989,992,991,991,989,979,972,973,982,988,989,986,984,984,984,982,978,978,979,978,977,981,978,977,977,981,982,980,981,980,980,986,988,989,991,986,983,983,981,985,993,1006,1028,1042,1058,1077,1098,1112,1124,1134,1159,1187,1213,1220,1210,1190,1162,1121,1059,998,957,933,921,917,918,927,938,946,950,952,958,961,961,961,959,958,959,959,961,960,961,965,968,969,975,978,977,977,976,974,973,972,975,977,978,978,982,990,1003,1008,1001,977,953,942,948,961,968,966,970,973,978,981,983,983,983,986,987,986,984,985,986,988,990,990,989,991,994,997,999,998,998,997,999,1001,1006,1012,1014,1016,1019,1023,1029,1031,1023,1002,993,998,1008,1016,1021,1029,1036,1040,1033,1022,1011,1006,1007,1008,1011,1008,1001,1002,1005,1009,1012,1007,1004,1008,1012,1012,1010,1007,1005,1001,1004,1005,1008,1002,998,998,1001,1007,1009,1010,1008,1011,1014,1017,1021,1018,1016,1013,1013,1011,1011,1008,1007,1008,1012,1015,1017,1008,1000,996,995,994,991,984,977,977,981,988,992,992,991,989,993,995,1004,1005,1002,1001,1006,1010,1007,995,978,969,975,991,1000,1001,1000,1002,1007,1009,1005,1002,997,997,1000,1006,1012,1017,1016,1018,1016,1019,1018,1020,1020,1022,1024,1025,1025,1028,1032,1029,1020,1007,994,991,993,1000,1002,1008,1004,1002,998,994,1000,1004,1005,1010,1014,1017,1018,1016,1007,997,984,975,980,990,997,999,1003,1004,1006,1011,1012,1010,1009,1009,1012,1011,1013,1014,1012,1013,1019,1029,1028,1022,1014,1005,1001,1002,1012,1027,1040,1051,1072,1097,1120,1142,1162,1182,1209,1232,1258,1275,1278,1267,1241,1197,1127,1056,1010,981,966,956,949,959,972,986,998,996,992,992,994,991,987,986,987,992,994,982,973,970,978,984,987,984,991,1000,1001,991,979,973,970,974,980,988,996,998,998,994,993,994,993,986,981,984,990,992,988,992,1007,1014,1012,998,984,976,986,997,1002,1001,1000,996,1000,1006,1013,1024,1029,1027,1024,1023,1026,1030,1033,1033,1031,1030,1027,1027,1029,1026,1028,1034,1040,1040,1031,1020,1012,1014,1026,1037,1038,1037,1035,1040,1040,1038,1033,1031,1032,1033,1036,1032,1031,1028,1030,1035,1038,1034,1027,1026,1027,1034,1039,1037,1029,1016,1014,1010,1011,1015,1019,1018,1015,1013,1011,1014,1014,1013,1013,1012,1009,1009,1010,1004,1005,1010,1021,1020,1019,1015,1013,1015,1011,1003,990,983,987,999,1007,1008,1001,997,998,1002,1010,1014,1009,1003,1002,1006,1012,1015,1016,1016,1024,1030,1035,1034,1029,1024,1025,1024,1017,1013,1012,1009,1004,1005,1013,1015,1009,1001,1001,1006,1017,1017,1009,999,996,998,1008,1014,1018,1020,1030,1036,1036,1021,1002,992,995,1000,1004,1006,1008,1007,1013,1016,1015,1011,1006,998,1001,1007,1011,1007,1000,993,998,1006,1011,1010,1005,1002,1000,1003,1005,1010,1021,1036,1052,1076,1100,1123,1141,1166,1191,1217,1239,1255,1257,1246,1229,1205,1166,1111,1054,1017,995,975,961,963,973,986,994,987,975,967,967,971,977,976,977,979,978,976,974,977,981,983,987,987,988,986,988,987,986,985,985,984,984,984,985,986,983,985,987,987,987,984,984,985,986,986,989,988,988,985,991,993,994,993,993,993,992,994,996,998,999,1001,1004,1005,1006,1004,1004,1008,1010,1010,1012,1004,1007,1011,1013,1013,1016,1015,1017,1018,1016,1020,1026,1030,1027,1027,1023,1025,1027,1028,1026,1027,1028,1030,1032,1031,1027,1027,1032,1034,1035,1035,1031,1031,1035,1042,1041,1027,1007,996,1000,1008,1007,1003,1002,999,1001,998,998,995,994,996,1000,999,1000,1000,1001,1000,999,996,995,995,996,995,996,995,992,992,993,996,995,995,991,989,988,990,989,992,992,991,991,992,998,999,999,998,996,990,985,979,977,978,981,984,983,985,984,985,986,988,992,995,995,993,993,995,999,1002,1004,1003,1005,1005,1004,998,994,990,993,997,996,994,990,992,992,993,994,991,988,988,991,994,999,998,997,998,1000,1006,1009,1010,1005,997,998,997,996,990,985,982,982,986,990,992,995,995,994,996,995,993,986,984,985,992,996,991,986,982,981,983,988,990,1000,1014,1030,1046,1066,1085,1104,1125,1147,1172,1198,1219,1232,1232,1217,1192,1162,1120,1060,1003,966,946,936,934,936,942,947,952,959,961,962,963,964,964,963,959,956,956,959,962,964,963,961,962,967,967,970,970,971,968,966,965,968,967,963,961,964,967,971,973,974,972,969,970,974,974,973,972,973,973,969,969,970,972,974,980,979,980,980,977,977,978,981,982,979,978,982,989,992,989,982,979,984,990,996,997,996,993,991,994,999,997,995,997,999,1004,1009,1011,1006,1006,1007,1010,1010,1005,998,995,993,1001,1010,1009,1008,1006,1003,1004,1004,1001,998,995,995,999,1000,998,996,989,987,990,995,994,991,983,984,987,992,993,989,986,985,986,988,988,989,992,994,996,1003,1006,1011,1012,1007,991,973,961,958,961,971,980,980,979,975,975,974,975,975,977,974,972,972,971,973,973,970,968,966,965,967,967,969,969,971,974,975,975,974,973,968,972,973,979,980,977,975,972,974,977,981,979,978,977,982,988,994,1008,1022,1029,1031,1022,1001,978,958,951,959,970,979,984,986,996,1012,1010,997,968,950,943,944,956,963,966,967,969,973,973,966,964,970,975,982,980,981,979,978,977,984,983,990,992,987,979,981,989,992,985,983,990,999,999,986,976,981,1002,1020,1016,987,954,933,924,934,952,969,984,1007,1037,1064,1082,1093,1114,1139,1171,1204,1223,1230,1224,1208,1183,1137,1057,979,930,912,911,915,923,935,945,952,956,959,959,955,946,942,946,950,952,954,954,958,962,967,966,964,960,960,961,961,965,965,961,963,966,972,970,965,962,959,959,966,972,978,979,983,985,979,965,953,948,954,957,964,966,970,971,969,964,970,977,985,985,987,986,987,987,985,985,987,989,994,993,993,991,993,997,1001,1003,1004,1005,1006,1005,1007,1012,1015,1015,1011,1009,1007,1006,1007,1004,1000,1003,1013,1014,1020,1026,1025,1009,995,994,998,1006,1005,1007,1016,1024,1034,1034,1026,1008,995,995,996,989,983,976,978,980,985,985,981,975,973,978,981,979,978,975,973,975,980,987,996,996,995,988,985,987,989,989,982,980,989,1000,1002,1005,996,978,970,982,1006,1023,1038,1044,1022,969,914,899,921,951,963,968,971,977,986,988,983,978,979,984,986,988,983,980,978,981,988,992,988,984,984,984,987,987,986,986,988,989,991,995,996,989,986,981,978,982,986,984,983,986,989,989,984,981,981,988,997,1000,998,996,995,997,998,996,994,991,988,986,986,990,1001,1012,1022,1034,1052,1073,1094,1113,1135,1158,1185,1208,1229,1241,1240,1225,1197,1157,1100,1034,985,960,946,939,937,945,962,973,979,979,976,973,971,974,979,986,987,989,986,982,979,978,978,975,970,965,960,962,967,968,965,964,964,959,961,965,968,974,975,973,967,963,965,967,974,976,978,974,974,977,979,979,979,977,979,983,983,981,979,979,978,980,987,987,988,995,1009,1027,1044,1046,1038,1017,994,980,968,964,962,968,984,993,1003,1004,1003,1005,1006,1011,1015,1015,1014,1014,1014,1016,1020,1018,1016,1014,1014,1018,1018,1014,1012,1011,1010,1014,1020,1018,1012,1002,998,1000,1008,1016,1027,1019,1000,979,970,977,988,995,995,990,986,987,990,991,991,989,991,989,990,987,987,986,983,982,983,982,984,985,988,987,987,984,983,983,982,980,977,975,975,980,983,979,977,977,982,986,995,1001,1003,1002,998,993,981,966,964,977,994,1002,1001,990,979,974,975,983,981,979,979,980,983,986,989,986,981,977,980,986,989,990,991,988,987,983,979,977,975,971,966,970,974,977,975,973,973,976,982,981,980,978,981,986,984,979,972,970,968,976,990,1008,1034,1062,1086,1099,1110,1127,1156,1185,1199,1193,1173,1144,1098,1037,980,944,929,931,943,952,954,956,955,955,954,954,950,948,950,953,955,949,948,954,960,958,952,948,953,958,962,959,960,955,955,955,957,960,957,956,953,958,958,960,961,962,963,965,966,966,968,968,969,976,980,980,973,964,959,961,968,972,975,976,975,977,979,981,983,982,985,985,987,986,990,992,994,999,1006,1008,1008,1005,992,981,978,981,984,990,995,999,1003,1001,999,997,994,993,997,995,994,989,986,988,989,986,984,977,976,978,980,979,977,973,972,972,976,978,977,976,976,978,978,977,975,975,974,972,972,971,967,962,960,958,965,965,960,958,958,963,966,967,965,962,962,967,973,968,969,964,962,962,964,964,966,960,952,952,954,959,961,962,960,958,958,961,962,963,961,958,960,961,963,963,966,969,974,973,969,965,966,970,973,971,971,969,970,975,977,972,966,964,969,978,985,985,979,966,955,951,961,967,970,969,967,966,965,963,964,964,964,964,965,962,963,964,967,966,971,973,976,979,976,968,964,963,966,965,967,975,992,1003,1018,1033,1054,1074,1095,1117,1143,1169,1195,1212,1212,1189,1155,1092,1015,955,927,910,908,912,923,935,942,949,958,961,961,955,945,933,929,930,933,944,953,956,959,953,951,953,956,954,949,947,950,956,961,960,964,965,967,969,968,966,965,960,961,966,974,972,972,972,976,982,991,990,981,972,970,976,976,966,958,956,961,969,973,976,985,986,985,991,993,993,992,990,994,995,997,996,998,996,994,998,1001,1005,1002,1003,1003,1004,1005,1005,1001,998,999,1003,1012,1016,1015,1012,1010,1012,1012,1014,1015,1022,1024,1025,1008,989,976,977,986,993,994,987,985,985,983,987,986,983,984,985,984,986,991,993,993,988,982,978,984,989,991,988,985,985,986,985,983,979,979,980,984,984,982,981,980,981,980,977,973,966,969,977,981,980,977,974,973,975,984,988,991,987,984,988,996,999,1003,1003,1000,1001,1004,1005,1004,1002,1002,999,1000,995,991,989,985,989,993,992,992,990,987,991,995,996,992,988,987,992,996,993,993,993,1000,1002,1004,1002,1000,996,994,991,991,989,988,986,985,983,980,979,977,977,981,987,994,997,992,989,990,994,1000,1002,1000,996,993,991,987,989,1002,1019,1036,1053,1072,1086,1101,1119,1146,1179,1206,1226,1243,1251,1243,1226,1198,1147,1074,1006,967,952,944,942,947,954,962,966,970,972,974,976,973,974,980,984,988,978,964,947,944,949,954,960,962,964,972,970,971,971,971,975,980,977,974,975,976,977,975,973,972,968,967,969,973,975,979,977,975,976,980,981,981,982,979,981,989,992,992,988,988,988,986,980,981,985,995,1000,1004,1004,1004,1005,1006,1010,1016,1013,1013,1011,1013,1019,1021,1023,1022,1017,1015,1018,1019,1018,1018,1018,1017,1017,1016,1010,1004,1000,1003,1010,1017,1015,1016,1018,1020,1016,1014,1008,1006,1001,1003,1003,1005,1006,1009,1006,1003,1003,1007,1005,1000,997,995,995,995,990,988,989,990,993,998,994,991,983,981,981,981,983,987,989,988,990,994,991,992,987,984,981,981,983,987,989,989,992,992,992,990,991,996,999,1009,1025,1045,1050,1032,1001,974,964,979,997,999,990,979,975,981,988,990,990,992,991,991,988,986,990,989,992,993,990,989,989,988,987,988,988,989,991,993,993,992,991,990,990,992,994,991,988,982,977,974,973,973,977,985,991,993,993,989,988,983,984,987,989,989,989,989,989,991,986,980,976,981,993,1008,1025,1049,1075,1101,1128,1153,1172,1184,1183,1180,1180,1185,1193,1190,1179,1159,1130,1088,1042,1006,980,959,946,946,951,960,967,973,980,978,972,970,970,967,963,961,953,953,954,954,955,956,957,957,959,960,969,971,967,961,956,959,963,968,965,958,955,960,970,975,977,975,973,974,975,977,976,978,973,975,975,978,977,975,973,973,976,980,981,978,977,974,978,982,982,980,981,983,983,992,991,987,985,986,993,993,989,984,981,984,987,993,997,994,993,992,996,1006,1011,1012,1011,1009,1010,1011,1012,1010,1008,1008,1009,1011,1013,1017,1015,1010,1008,1003,998,999,998,999,999,1004,1004,1003,999,995,995,996,993,993,992,991,992,992,990,988,983,983,980,981,981,983,984,986,989,987,986,982,977,973,979,984,982,983,980,978,979,976,979,982,977,976,976,977,972,972,971,968,967,970,970,973,972,970,973,977,983,982,983,978,971,966,964,966,967,976,978,975,970,966,961,963,966,970,974,975,972,967,965,964,965,968,970,974,979,985,987,986,983,980,978,980,980,978,976,974,972,977,979,977,974,974,973,973,974,975,973,976,975,980,976,975,974,975,974,974,969,968,965,966,967,966,962,961,967,969,974,976,976,976,973,972,975,977,975,973,974,973,973,971,967,966,968,976,993,1010,1028,1042,1056,1070,1090,1104,1121,1140,1162,1179,1195,1202,1194,1178,1158,1131,1090,1034,979,940,921,915,915,919,927,933,935,937,944,951,954,953,951,944,945,948,951,952,948,946,945,948,953,954,951,951,951,956,957,960,957,953,955,961,961,958,957,952,955,961,963,961,955,957,962,966,969,971,974,975,974,973,970,969,967,965,966,971,969,969,969,975,978,984,980,980,978,982,986,989,987,987,985,986,987,992,991,990,991,991,993,998,999,997,999,996,997,996,996,996,992,996,997,996,996,999,1000,1001,1000,1003,1009,1015,1017,1019,1022,1023,1022,1015,1008,1003,1001,1003,1001,1003,998,993,996,1001,1003,1000,999,998,999,1001,998,997,999,996,997,999,997,994,992,989,991,994,993,992,990,990,991,992,993,992,988,982,979,976,976,979,983,987,987,990,988,984,984,984,988,989,989,990,985,986,988,992,991,988,986,987,989,993,992,988,986,984,988,993,996,994,993,986,986,992,994,994,994,994,997,1005,1004,1004,1005,1007,1009,1014,1016,1014,1015,1013,1012,1007,1000,994,990,991,993,995,996,992,988,983,992,997,995,998,993,994,992,995,995,996,995,994,990,990,992,997,1002,1005,1004,1004,1001,1001,1001,1001,1000,999,997,998,1001,1002,1003,1004,1000,998,997,1000,1002,1008,1006,1003,1000,996,995,995,1002,1016,1028,1040,1056,1076,1094,1115,1135,1157,1183,1206,1230,1247,1252,1246,1232,1199,1138,1063,1011,991,985,988,981,967,949,947,960,978,984,983,974,969,973,974,972,971,970,972,975,977,978,983,986,987,990,991,987,984,983,982,983,990,992,992,986,987,988,991,992,991,990,992,997,1006,1006,1005,999,988,984,987,991,994,993,991,991,993,996,998,999,1002,1005,1004,1005,1006,1010,1015,1020,1020,1014,1003,994,998,1012,1024,1024,1026,1021,1023,1026,1030,1035,1035,1034,1033,1037,1040,1042,1039,1037,1031,1031,1034,1033,1029,1030,1030,1035,1035,1034,1032,1028,1025,1024,1024,1023,1022,1021,1020,1019,1019,1018,1016,1012,1010,1006,1006,1005,999,1002,1010,1015,1020,1014,1010,1005,1007,1009,1011,1009,1010,1008,1010,1014,1015,1010,1009,1007,1005,1006,1009,1007,1008,1013,1012,1007,1004,998,998,995,996,993,996,996,997,998,999,1001,1002,1002,1001,1004,1004,1007,1017,1022,1026,1019,1017,1021,1025,1026,1026,1022,1022,1017,1015,1013,1014,1013,1014,1015,1015,1015,1011,1009,1008,1011,1014,1010,1008,1007,1010,1014,1020,1016,1014,1010,1008,1011,1014,1016,1015,1015,1013,1011,1011,1011,1011,1008,1005,1003,1005,1004,1006,1001,1000
