829,830,831,833,836,835,835,837,840,845,840,836,835,834,836,837,838,830,835,839,839,845,840,838,835,832,831,834,831,828,831,834,835,834,831,834,833,830,833,829,826,821,824,831,835,839,834,830,830,830,826,828,825,821,821,823,827,827,824,823,817,818,818,816,813,812,812,814,816,821,819,815,814,814,815,816,816,812,813,816,820,826,822,820,815,818,819,820,820,820,820,826,827,831,828,826,825,823,826,827,833,830,831,835,839,844,846,847,847,853,858,864,864,866,869,870,876,879,877,875,870,868,870,868,865,863,860,856,861,863,860,856,847,840,833,832,832,831,827,826,824,828,829,828,824,818,818,819,817,822,822,823,823,826,828,826,817,806,796,787,781,784,789,805,821,855,892,934,973,1011,1044,1075,1108,1138,1157,1167,1165,1166,1157,1144,1131,1104,1060,1007,947,892,857,836,830,836,846,857,862,854,851,836,823,814,810,814,815,813,811,812,813,814,811,809,806,806,814,818,819,821,814,814,812,815,817,814,810,810,814,819,822,823,820,815,816,818,818,821,819,818,818,823,828,833,832,826,823,822,824,826,825,825,826,830,832,836,838,834,832,835,835,833,833,831,831,830,837,842,844,844,840,836,836,838,837,838,838,840,843,848,847,843,845,840,844,845,843,842,840,843,839,840,844,843,839,840,838,840,840,840,841,838,838,839,842,840,838,835,834,835,834,839,838,839,836,838,835,839,841,840,837,828,827,826,832,833,834,830,830,832,832,830,824,823,823,823,827,827,825,822,821,821,826,827,825,822,821,825,829,834,836,835,830,828,828,828,827,829,827,829,835,840,843,845,839,836,842,842,847,843,843,844,851,859,865,870,869,872,875,883,885,883,877,877,878,882,885,884,881,876,874,872,871,872,867,865,859,857,853,850,844,839,838,840,835,829,827,825,831,836,838,836,836,836,833,835,831,822,818,820,819,812,803,796,797,805,826,853,890,925,965,1010,1047,1088,1119,1145,1163,1178,1185,1184,1182,1173,1160,1141,1109,1066,1005,942,891,859,846,847,859,867,867,862,855,849,845,839,832,826,822,821,822,824,820,821,820,824,828,826,824,824,825,823,824,822,818,820,828,832,830,831,825,826,831,834,833,832,828,830,833,835,836,833,833,826,829,833,836,835,830,831,830,835,838,839,839,844,844,847,841,834,833,835,840,846,852,850,848,845,844,848,849,844,844,846,850,855,857,858,856,853,855,852,852,850,846,846,847,847,851,852,851,848,852,851,849,846,843,841,851,853,851,849,847,848,852,849,847,844,842,841,845,847,847,843,846,846,847,845,840,838,839,838,844,843,844,840,840,841,840,838,835,831,828,833,836,837,839,838,840,839,841,841,838,836,834,835,837,844,847,843,842,845,845,849,850,845,848,847,850,855,857,858,860,863,870,876,874,877,878,885,891,891,891,890,891,893,893,893,888,882,879,875,878,881,879,875,873,866,865,860,856,848,846,843,845,846,846,845,840,839,840,840,840,836,833,833,834,838,842,837,832,829,824,817,809,797,790,792,806,832,863,904,941,974,1005,1039,1072,1103,1130,1150,1163,1174,1179,1177,1171,1151,1128,1087,1030,966,903,855,834,834,849,862,868,865,860,851,843,834,825,822,818,821,824,826,825,823,820,817,823,824,822,821,819,820,826,827,827,823,819,817,825,824,822,824,818,819,821,829,833,828,826,823,822,826,827,828,823,825,827,830,834,831,832,827,825,829,830,832,830,831,833,837,836,835,836,834,835,834,834,833,834,837,842,841,841,841,840,834,836,837,838,837,836,840,843,848,845,842,836,837,838,837,835,834,832,835,837,840,838,836,833,833,834,833,831,830,827,829,833,833,834,836,831,828,827,829,828,825,822,821,823,826,828,826,820,814,814,812,816,813,812,811,807,809,809,811,810,806,803,803,805,805,805,805,808,811,815,812,806,806,807,806,806,806,802,803,809,812,812,813,812,811,813,811,812,812,813,815,819,827,831,829,829,831,836,837,839,839,835,837,841,842,843,839,831,824,821,818,816,813,808,807,806,805,802,795,788,781,772,773,770,769,764,762,761,761,763,760,754,751,743,743,744,743,742,742,740,735,726,719,704,693,691,699,718,743,776,816,858,901,939,970,999,1022,1044,1058,1064,1059,1050,1036,1021,992,948,875,803,744,703,691,689,696,706,712,713,710,701,688,677,666,661,658,662,662,658,655,660,662,664,659,658,657,656,656,651,650,647,646,650,652,654,651,646,646,646,647,643,638,644,648,651,648,648,646,645,645,643,641,640,636,642,646,647,644,645,645,645,642,643,637,636,637,637,643,640,637,637,636,639,641,637,634,629,630,633,637,637,636,636,631,634,634,633,630,628,625,627,630,629,628,632,630,629,631,631,625,621,621,622,625,626,628,626,625,627,628,629,622,618,620,620,622,622,620,622,623,623,621,612,612,609,608,608,612,611,607,608,609,607,607,602,599,600,602,603,607,607,605,608,610,605,602,604,601,603,607,611,612,610,611,614,618,620,614,613,611,614,613,619,623,626,625,621,625,629,629,629,626,631,635,642,648,650,651,654,657,655,654,650,648,649,648,645,648,645,645,643,644,646,637,630,628,624,625,623,623,618,620,620,621,621,620,620,613,614,615,617,620,622,620,621,622,621,618,613,602,596,588,584,586,593,603,624,645,681,718,750,785,822,858,893,935,963,978,982,980,968,958,943,922,888,838,775,714,674,645,632,627,635,646,650,656,649,637,623,620,620,617,618,615,617,614,616,616,615,614,614,614,619,623,627,624,622,619,622,622,623,623,617,624,626,632,633,632,632,627,628,627,629,630,628,630,629,635,639,638,636,635,635,636,639,638,638,641,643,645,652,653,652,649,646,648,650,653,656,653,655,656,658,661,662,656,657,659,657,658,660,661,661,666,668,669,667,666,664,665,664,664,664,663,664,666,669,670,669,666,663,663,666,663,667,669,669,667,668,670,672,671,666,665,668,666,668,669,666,666,669,669,670,664,663,658,658,659,663,665,664,660,662,662,664,661,656,654,652,654,657,659,653,654,657,659,660,659,659,655,653,656,660,662,664,664,666,666,668,667,668,663,662,663,669,674,674,678,681,684,686,682,685,686,693,700,707,707,712,711,719,723,724,721,719,718,717,717,715,713,710,709,714,716,716,712,704,698,696,695,692,694,690,686,688,694,692,690,687,684,679,683,686,688,689,686,689,691,692,690,689,683,674,667,662,659,657,666,682,709,749,792,836,881,926,967,1006,1033,1050,1056,1056,1050,1039,1018,994,955,901,839,781,734,711,703,711,724,733,738,727,716,709,703,697,690,692,692,699,699,702,697,697,697,699,701,704,703,702,700,706,710,709,705,704,701,704,705,708,707,704,708,712,718,720,717,714,714,711,714,715,716,717,719,718,723,723,723,719,720,722,723,721,722,725,729,733,735,732,731,731,730,734,733,733,729,733,736,741,743,743,740,741,741,743,741,741,742,742,746,751,751,749,748,744,746,747,747,747,747,744,751,752,753,751,750,746,745,746,747,747,745,749,751,754,758,756,753,750,749,749,751,747,745,749,751,750,750,748,743,745,746,744,743,740,742,742,748,748,746,741,743,746,745,745,744,744,746,748,752,754,755,754,756,753,756,756,754,752,753,760,764,766,770,770,768,772,773,772,773,773,775,783,791,798,799,801,803,806,813,811,812,808,805,808,813,817,814,812,807,806,805,805,803,801,796,797,794,789,787,784,782,777,775,774,772,770,771,772,778,778,779,771,772,777,778,780,776,773,771,767,765,757,751,746,745,757,783,813,847,886,928,974,1014,1055,1090,1119,1135,1144,1150,1145,1135,1118,1095,1057,1008,947,884,833,803,795,801,809,819,821,813,808,803,795,787,781,779,778,780,780,777,775,772,780,783,788,783,784,781,782,783,782,783,782,787,790,791,791,791,791,791,793,792,790,788,789,794,796,798,798,799,798,797,799,799,797,797,798,806,808,804,804,805,809,811,813,813,811,809,808,813,816,820,822,822,817,821,819,822,818,818,816,820,825,827,828,830,828,829,828,828,827,825,824,823,826,832,828,834,829,827,824,828,827,823,823,821,828,827,831,829,826,824,826,829,828,828,824,822,831,832,832,826,822,826,824,826,825,819,817,820,822,823,822,821,818,817,816,816,813,813,814,814,821,824,821,821,818,823,822,823,816,818,819,822,829,831,832,827,832,837,838,838,833,833,837,836,843,843,850,851,851,862,866,869,869,872,877,878,880,880,882,883,883,882,878,875,869,867,868,871,871,867,864,860,856,854,850,845,840,839,841,841,842,840,840,842,845,846,841,839,837,838,839,842,841,837,832,830,822,817,805,804,809,826,850,889,938,978,1019,1057,1095,1132,1162,1182,1193,1198,1203,1204,1200,1188,1162,1129,1077,1010,947,893,862,847,853,869,882,887,881,872,861,854,842,836,831,834,837,843,843,841,843,841,844,846,846,843,841,841,841,845,845,844,843,841,847,845,846,842,838,839,843,848,849,851,850,850,850,850,851,851,845,842,846,849,852,856,855,857,859,855,859,855,853,852,855,862,867,866,865,868,867,870,871,871,866,864,865,867,874,873,874,871,874,876,876,875,873,871,873,876,878,877,876,878,881,881,880,875,873,867,870,869,876,876,875,876,877,879,878,875,871,871,872,877,878,880,876,875,876,877,877,876,868,868,869,872,874,876,873,870,870,870,870,867,863,859,858,864,868,867,869,864,865,867,868,865,862,861,861,864,869,871,872,870,870,873,871,870,866,872,874,881,884,885,884,885,887,889,892,893,893,894,896,904,911,916,916,919,919,920,922,921,917,915,914,915,917,915,912,911,908,907,909,909,900,896,889,885,886,885,885,888,879,878,878,876,876,870,871,867,872,878,881,880,873,875,873,872,870,864,852,841,835,836,844,855,876,908,947,992,1041,1078,1115,1151,1184,1208,1223,1232,1228,1221,1215,1202,1183,1154,1105,1045,983,935,902,890,886,892,901,903,903,898,887,876,870,865,867,866,863,863,858,860,862,863,862,863,861,865,868,874,875,872,867,865,866,866,866,867,865,864,870,875,874,875,872,867,864,867,865,865,870,870,870,873,872,873,871,866,869,873,873,873,871,874,878,884,884,880,879,877,877,878,880,882,881,881,882,884,888,887,887,885,883,885,885,888,887,889,890,892,893,892,893,890,889,888,888,890,892,892,891,887,891,893,890,887,887,881,882,884,890,892,888,889,886,888,891,888,885,887,882,886,891,890,891,889,887,886,888,885,883,878,879,881,883,879,879,879,878,879,877,874,870,871,869,872,873,876,877,874,876,878,882,879,875,876,876,876,881,881,879,880,881,885,883,884,883,879,878,884,889,895,898,895,893,893,894,895,897,896,898,905,911,918,923,925,924,923,929,929,931,927,924,922,921,926,928,927,920,916,911,912,914,912,904,901,897,897,894,890,887,886,886,885,880,879,875,876,882,887,884,882,882,883,877,880,878,872,862,858,850,845,849,856,876,911,950,989,1026,1057,1092,1126,1158,1189,1213,1226,1229,1227,1223,1206,1188,1158,1107,1047,984,934,900,888,887,900,911,916,909,900,889,882,880,876,873,870,871,875,875,877,873,872,871,873,874,876,875,880,878,879,879,873,872,873,874,877,877,877,878,878,879,880,879,874,877,876,878,878,880,880,881,883,889,890,887,885,880,882,883,889,888,891,887,891,891,899,895,892,890,890,893,897,897,898,897,897,898,897,902,900,896,895,890,895,894,901,899,904,901,900,902,904,900,898,897,897,899,901,898,902,902,904,897,895,891,895,893,894,896,895,896,898,900,899,894,890,887,887,887,889,888,885,885,887,891,888,884,880,879,881,883,883,879,879,879,883,885,884,878,876,876,878,878,877,880,881,881,886,886,888,883,882,882,882,886,887,888,887,889,891,895,895,894,889,892,894,896,894,898,900,907,913,920,921,923,925,930,934,936,931,931,933,937,939,940,938,927,922,921,924,922,920,919,920,916,916,912,905,895,891,893,891,889,890,886,887,885,890,890,887,885,879,883,883,885,885,884,882,876,878,871,866,852,843,844,861,882,910,943,980,1020,1060,1098,1131,1163,1190,1210,1224,1228,1231,1224,1209,1188,1159,1106,1037,972,920,894,888,897,908,915,917,916,909,904,893,880,875,871,872,873,876,875,876,877,881,883,882,885,882,878,880,882,885,881,881,882,885,888,889,888,883,881,882,886,890,888,885,888,888,891,891,887,883,881,878,886,888,893,895,895,893,894,899,899,898,893,892,894,897,903,901,902,900,905,905,903,901,898,901,905,905,903,904,906,905,910,908,905,904,906,906,910,907,909,907,908,910,914,914,909,906,903,904,905,906,905,903,901,907,909,908,904,903,898,899,898,903,901,901,897,898,903,904,899,896,893,891,889,893,892,892,887,889,889,887,887,884,882,882,880,882,880,880,881,884,887,886,883,881,879,887,886,886,885,888,892,895,897,893,891,888,890,890,892,891,890,892,895,901,901,900,901,899,900,904,900,907,910,915,925,933,937,938,937,937,937,937,941,940,937,937,937,938,940,937,931,928,926,926,925,922,916,914,908,906,908,906,898,889,890,887,887,885,885,887,888,891,893,889,887,888,885,885,881,877,868,863,856,850,851,865,882,908,944,983,1021,1054,1090,1123,1157,1190,1212,1224,1227,1226,1220,1208,1194,1167,1125,1070,1012,960,924,901,893,899,911,918,919,912,901,892,886,881,879,874,873,870,872,874,872,873,873,873,877,882,884,879,873,875,876,875,874,872,873,876,879,880,882,881,878,882,879,880,875,876,877,882,888,890,889,885,885,887,890,888,888,886,885,887,895,895,896,894,894,891,896,896,894,893,895,897,904,903,901,901,899,901,900,902,900,897,898,901,905,906,906,905,904,902,903,901,895,897,897,900,902,902,901,896,896,898,897,893,891,894,891,895,899,899,896,897,896,896,893,891,887,888,892,894,892,888,889,890,891,890,889,879,871,873,880,883,883,883,881,881,881,882,879,874,873,870,872,878,880,881,879,876,878,878,880,883,880,880,875,883,888,889,888,888,885,884,886,886,884,883,882,885,888,895,900,901,896,893,895,899,901,905,904,908,919,923,933,930,931,933,933,931,931,923,929,932,929,931,933,925,920,917,917,915,918,910,903,898,895,897,895,896,886,883,882,882,882,876,874,876,882,882,881,882,883,878,875,877,877,875,865,857,847,842,841,841,848,860,884,917,958,1001,1038,1079,1114,1149,1182,1208,1221,1225,1223,1219,1211,1205,1189,1165,1124,1068,1012,958,921,898,889,893,904,910,908,906,893,885,880,875,871,866,862,860,863,865,871,868,866,866,867,868,869,871,872,867,865,866,869,869,871,871,875,871,876,873,874,871,868,867,870,876,878,880,877,874,874,876,877,877,875,871,872,879,883,884,885,878,876,881,883,885,882,878,880,880,885,893,893,891,889,887,888,891,893,890,890,893,897,899,901,899,895,896,897,898,896,895,893,894,899,899,901,897,892,892,894,890,892,889,886,885,890,891,889,888,889,887,890,889,891,885,883,884,885,888,890,886,880,884,881,881,881,878,876,874,880,883,885,880,877,871,869,867,870,867,867,868,870,873,877,874,872,866,869,870,872,873,869,870,873,876,878,878,875,872,876,875,875,874,873,875,881,882,883,880,876,879,880,881,887,883,880,888,890,895,897,900,901,906,911,915,922,920,919,922,923,930,927,928,923,920,919,918,917,915,909,908,908,912,912,904,894,890,887,887,886,882,876,877,879,880,881,877,875,874,876,871,874,870,868,869,873,870,871,860,849,840,833,837,850,873,911,956,1006,1051,1094,1131,1166,1193,1212,1218,1221,1218,1211,1198,1180,1144,1090,1029,972,928,899,887,885,894,906,913,914,908,893,881,874,866,862,861,861,857,855,861,866,868,869,865,866,868,865,866,863,859,858,861,866,869,869,869,864,867,869,869,864,861,861,862,866,869,872,870,869,871,871,871,869,865,867,873,872,876,874,875,875,880,877,877,874,872,876,880,885,885,885,880,883,883,885,885,886,882,885,889,895,893,893,894,893,895,892,892,891,886,885,891,895,895,891,890,888,891,891,891,887,884,886,889,894,891,891,886,888,888,885,885,882,879,878,881,884,890,891,888,888,888,883,883,879,876,875,879,880,882,880,879,879,881,876,871,867,866,869,874,871,872,868,868,867,870,869,870,867,868,873,877,878,877,874,871,869,872,875,875,871,869,870,874,880,881,886,884,884,883,885,886,882,882,883,887,893,897
