958,967,974,974,974,976,982,986,985,984,986,991,993,995,995,992,995,997,1003,1005,1002,1002,1002,1006,1012,1016,1017,1016,1018,1022,1030,1033,1036,1038,1046,1048,1052,1056,1056,1058,1060,1066,1070,1071,1069,1067,1066,1069,1072,1070,1067,1062,1059,1063,1063,1060,1055,1048,1044,1043,1039,1033,1027,1018,1016,1013,1013,1008,1002,993,992,994,994,994,988,982,984,984,987,986,982,981,982,980,985,983,981,982,980,978,983,984,981,975,977,980,985,989,987,984,984,987,990,993,993,993,993,995,998,995,988,987,986,985,987,984,981,980,980,983,985,985,978,973,974,975,979,978,974,972,972,975,980,979,978,977,977,977,981,979,977,974,977,978,980,978,974,974,977,980,982,984,979,976,978,982,986,984,978,974,976,986,1006,1036,1065,1093,1126,1160,1189,1205,1203,1179,1143,1098,1034,963,900,862,857,879,903,922,938,952,965,975,980,978,976,974,980,984,989,988,989,987,992,990,992,988,987,991,994,993,998,1000,999,996,1000,1003,1011,1014,1013,1015,1016,1021,1032,1037,1038,1038,1044,1048,1051,1050,1053,1056,1057,1059,1064,1067,1067,1068,1067,1063,1062,1064,1065,1062,1058,1054,1048,1042,1034,1027,1025,1023,1022,1016,1009,1004,1001,999,1000,995,988,986,982,985,985,985,981,980,977,980,978,980,975,976,974,973,976,975,974,973,974,977,981,979,978,980,983,984,988,988,987,985,989,996,1001,1002,999,996,992,995,995,992,988,981,979,982,984,980,977,976,975,976,974,970,970,969,970,972,975,969,970,968,970,972,972,969,967,968,968,968,969,970,969,971,969,968,973,974,968,962,967,970,975,974,971,969,965,970,977,989,1008,1035,1067,1091,1124,1155,1176,1188,1190,1176,1145,1107,1060,996,926,871,849,852,872,895,912,932,947,959,961,960,964,967,972,972,974,970,970,974,977,979,982,976,978,984,988,987,985,983,988,994,996,999,996,998,1000,1008,1018,1021,1021,1023,1026,1032,1037,1041,1042,1044,1047,1053,1062,1063,1063,1060,1060,1063,1066,1063,1063,1057,1058,1057,1061,1063,1055,1047,1044,1041,1042,1037,1030,1021,1018,1016,1013,1007,1000,997,995,994,994,991,986,985,982,985,986,982,983,979,977,980,981,981,978,978,977,979,982,981,979,980,981,982,985,985,985,982,983,987,994,993,992,990,994,998,1001,997,992,986,987,989,987,985,977,973,974,976,981,980,975,972,969,971,973,970,969,966,967,967,973,973,971,968,967,968,969,970,971,970,972,973,974,971,969,965,967,969,972,970,971,968,970,974,977,977,973,967,966,968,980,997,1020,1045,1072,1101,1132,1150,1161,1149,1124,1090,1047,982,916,865,845,858,886,906,923,937,951,960,965,967,969,967,971,975,982,980,980,980,981,984,988,987,985,985,986,992,999,1002,998,999,1000,1005,1011,1010,1012,1015,1018,1024,1033,1034,1037,1034,1041,1047,1052,1055,1057,1059,1059,1061,1068,1064,1063,1061,1062,1067,1068,1065,1061,1060,1056,1054,1057,1051,1043,1037,1036,1034,1032,1025,1019,1010,1006,1004,1002,999,991,987,985,985,985,983,978,977,974,977,980,975,974,971,972,978,980,978,974,975,973,974,978,978,974,978,979,982,985,984,984,984,984,988,990,990,992,992,992,997,1001,996,989,984,983,984,984,982,978,973,973,977,980,984,979,974,971,971,975,974,968,969,967,971,975,975,971,968,966,970,975,973,970,969,971,973,973,970,968,968,970,974,977,977,975,973,973,973,975,974,974,978,994,1022,1050,1078,1104,1128,1148,1159,1152,1125,1084,1023,955,899,862,851,868,891,910,928,947,960,967,967,969,975,981,979,977,974,977,984,989,991,990,988,989,992,999,997,994,994,993,1001,1007,1006,1008,1011,1017,1020,1024,1024,1026,1029,1035,1041,1046,1048,1051,1050,1054,1056,1062,1064,1063,1059,1059,1060,1065,1065,1066,1061,1057,1057,1058,1055,1050,1045,1043,1040,1041,1034,1028,1020,1015,1012,1011,1007,1002,994,989,991,992,993,989,985,983,982,983,982,978,974,974,976,978,978,976,975,973,975,978,978,977,973,972,975,979,984,979,977,980,984,986,987,985,985,989,992,995,995,993,991,992,991,990,988,985,982,981,981,983,982,978,978,979,983,984,978,975,971,972,975,975,972,972,970,970,971,977,977,974,974,973,974,978,977,973,971,970,971,974,973,972,973,974,976,977,975,974,973,974,974,974,971,967,967,975,991,1011,1030,1051,1077,1105,1134,1156,1168,1157,1131,1094,1039,971,914,869,854,867,891,911,923,938,946,956,964,972,973,972,974,974,977,981,984,984,981,983,982,987,987,986,987,987,989,997,998,997,997,1003,1009,1013,1017,1017,1017,1022,1026,1032,1030,1032,1031,1036,1046,1051,1054,1055,1051,1051,1055,1058,1058,1057,1058,1060,1068,1070,1069,1064,1061,1057,1056,1057,1051,1043,1038,1034,1032,1030,1025,1018,1009,1006,1006,1003,996,991,987,986,987,986,980,977,975,974,979,979,977,974,968,967,972,972,972,970,968,969,969,974,974,972,972,973,975,978,978,978,976,976,976,979,980,984,982,988,993,995,992,987,983,982,983,983,982,978,976,976,982,982,983,981,981,978,979,976,974,970,969,970,972,974,975,974,971,973,973,978,976,970,969,972,977,979,978,976,973,973,977,979,978,973,970,975,979,979,977,970,972,971,984,1004,1031,1063,1095,1128,1159,1187,1199,1195,1159,1118,1071,1009,939,881,854,859,880,902,920,932,943,956,966,972,973,974,975,975,979,985,984,985,987,987,991,993,996,993,989,994,1000,1003,1003,999,1000,1004,1007,1015,1017,1016,1016,1025,1029,1036,1040,1045,1045,1047,1052,1057,1060,1060,1059,1063,1069,1072,1073,1069,1066,1064,1067,1067,1064,1060,1055,1052,1051,1051,1044,1039,1036,1031,1027,1024,1020,1012,1009,1003,1005,1004,997,990,987,986,989,989,984,981,977,978,984,983,983,982,980,979,979,980,980,977,971,975,978,983,980,979,978,980,982,986,985,987,986,990,995,998,998,997,994,994,993,995,995,992,986,988,986,987,984,981,979,979,984,984,987,983,976,975,977,979,976,971,968,972,976,976,975,973,973,974,974,976,974,971,971,973,977,981,984,983,979,976,978,980,981,978,979,981,978,981,980,977,972,971,974,981,989,1005,1036,1071,1105,1140,1169,1188,1196,1190,1166,1135,1097,1046,982,922,880,865,867,882,894,909,926,938,951,956,960,966,969,972,974,972,971,976,980,982,982,984,983,984,988,992,988,985,983,987,994,995,997,993,995,1000,1001,1005,1008,1007,1012,1018,1024,1031,1034,1033,1035,1036,1041,1045,1050,1055,1055,1055,1058,1059,1061,1060,1061,1062,1065,1066,1063,1056,1050,1048,1049,1048,1041,1035,1032,1029,1025,1022,1016,1009,1003,999,996,995,992,989,982,979,980,979,976,973,968,970,973,973,969,962,962,965,968,970,971,966,967,968,969,972,974,969,966,973,977,980,976,974,974,975,982,987,990,988,984,983,985,983,977,970,968,968,971,973,970,968,964,966,967,968,962,955,954,957,957,960,959,956,955,957,958,957,958,956,953,955,957,959,957,957,954,955,957,960,957,955,957,957,962,964,960,956,953,952,956,960,961,958,960,972,998,1030,1060,1084,1106,1130,1156,1166,1156,1126,1093,1061,1014,956,898,852,828,830,853,874,887,902,917,929,940,947,949,948,951,953,960,964,966,964,965,966,971,973,972,971,966,969,971,975,978,982,983,984,987,991,992,992,996,999,1004,1008,1009,1010,1012,1017,1022,1027,1027,1027,1025,1031,1037,1042,1043,1040,1040,1041,1044,1049,1049,1047,1043,1046,1047,1052,1048,1041,1035,1035,1036,1036,1032,1024,1018,1015,1013,1008,1003,1001,998,995,993,991,985,980,970,968,969,969,966,966,964,965,963,965,959,961,958,957,959,959,959,955,953,954,958,960,960,955,955,959,962,965,962,959,961,962,967,968,970,968,965,968,975,979,979,979,978,977,976,973,971,966,966,966,962,962,959,954,951,953,957,958,960,959,953,953,955,953,954,952,956,958,959,957,952,949,947,949,951,951,952,954,955,957,958,959,961,955,954,956,956,960,955,953,954,954,957,957,953,948,947,949,953,954,958,962,972,993,1020,1047,1073,1098,1122,1139,1151,1146,1120,1087,1043,980,922,871,837,829,843,867,885,900,911,921,932,942,947,951,951,948,948,951,957,962,963,958,957,958,964,967,968,966,968,970,973,974,976,977,980,986,991,994,994,992,994,1002,1006,1014,1016,1018,1019,1019,1024,1032,1034,1036,1038,1040,1045,1049,1044,1039,1037,1038,1040,1045,1046,1042,1039,1034,1033,1035,1033,1028,1021,1017,1015,1012,1004,994,987,985,986,982,978,971,964,963,962,964,962,960,958,958,958,960,955,953,951,949,953,952,948,949,950,952,957,958,955,951,950,950,951,954,954,952,954,956,958,958,956,955,956,962,971,974,970,965,965,961,961,962,960,954,951,951,951,946,947,944,942,946,948,945,938,935,935,935,940,942,939,937,934,938,940,942,945,941,939,939,939,941,939,934,936,938,940,945,942,942,940,942,944,946,946,941,940,942,943,943,943,941,950,966,989,1012,1036,1060,1086,1110,1130,1138,1133,1109,1076,1030,973,915,865,833,829,848,869,884,895,904,915,925,931,935,938,938,939,943,948,949,948,947,946,950,956,960,957,956,955,958,960,962,961,961,960,965,969,976,980,979,980,987,990,993,996,995,995,1000,1008,1012,1013,1017,1015,1019,1025,1027,1029,1027,1029,1031,1033,1035,1034,1028,1026,1027,1027,1027,1023,1016,1012,1006,1002,1001,995,988,985,983,981,978,974,969,966,964,961,958,954,951,949,948,950,950,948,946,943,946,948,948,947,942,939,941,945,944,941,938,937,939,947,944,946,946,944,946,949,951,952,948,950,950,955,959,960,961,961,964,967,965,960,954,949,950,952,953,954,950,947,948,949,951,948,947,943,941,942,943,944,939,938,938,939,946,944,941,940,941,943,949,946,941,942,940,946,947,944,944,940,943,946,948,943,945,941,943,947,946,948,944,942,943,944,945,948,958,973,1001,1038,1066,1094,1123,1148,1164,1170,1150,1117,1083,1040,982,928,879,843,827,838,858,879,895,909,917,927,935,941,945,946,945,943,946,951,957,954,952,951,953,957,960,962,961,959,963,965,968,969,967,969,972,982,986,988,991,991,993,998,1001,1002,1002,1004,1010,1017,1023,1026,1025,1028,1030,1036,1039,1034,1033,1035,1037,1040,1043,1039,1035,1030,1030,1030,1028,1024,1017,1011,1009,1007,1004,1000,991,984,981,979,976,972,968,963,964,966,962,961,958,956,956,957,955,951,949,946,949,952,953,951,947,946,949,954,955,953,952,954,955,959,960,960,957,960,966,970,975,972,969,968,972,973,972,967,960,954,957,958,957,953,951,951,951,953,957,955,948,943,944,947,947,943,941,941,946,949,952,951,946,945,949,952,953,951,949,950,949,952,952,951,949,949,950,953,955,953,952,952,954,957,956,951,949,951,963,983,1010,1040,1065,1093,1130,1155,1173,1173,1152,1120,1085,1042,982,916,861,830,833,856,878,894,908,921,934,945,950,952,949,948,953,957,962,961,958,958,962,963,966,968,966,968,971,977,978,978,976,978,981,987,989,992,993,998,1002,1008,1009,1010,1011,1014,1019,1023,1027,1029,1028,1032,1037,1041,1043,1042,1042,1042,1043,1045,1046,1044,1038,1039,1038,1038,1036,1032,1025,1020,1016,1014,1011,1005,995,993,990,990,988,982,978,972,970,969,969,966,964,962,964,966,965,962,956,954,955,958,963,958,956,954,957,960,961,960,959,959,960,964,966,965,960,962,964,968,971,972,972,972,972,977,982,980,975,971,969,969,967,965,959,957,957,958,961,961,960,959,956,956,956,956,953,952,951,956,955,953,947,948,952,956,956,957,953,955,956,959,960,958,956,955,956,962,961,961,955,953,955,956,960,958,955,955,956,963,971,988,1013,1040,1068,1094,1123,1145,1155,1143,1116,1085,1038,975,904,851,835,853,878,900,910,923,939,952,957,961,960,961,964,965,965,963,965,966,969,971,971,971,972,976,977,988,992,994,988,986,989,997,1001,1004,1004,1006,1010,1018,1022,1027,1028,1027,1032,1039,1044,1045,1047,1048,1049,1052,1050,1051,1048,1049,1052,1053,1052,1052,1044,1039,1034,1034,1030,1026,1020,1014,1011,1009,1006,999,993,990,992,991,986,981,975,972,974,978,980,977,974,971,969,971,974,974,970,970,971,978,977,974,970,970,974,975,976,973,972,972,977,982,986,985,979,981,987,994,997,996,996,988,986,987,983,982,979,978,977,977,978,975,973,972,973,972,969,963,962,963,965,969,969,967,966,966,967,972,974,972,967,964,964,968,970,972,969,970,971,974,977,975,968,967,970,976,979,979,974,974,973,977,984,999,1022,1047,1078,1112,1142,1161,1169,1154,1131,1100,1047,980,920,879,866,877,897,911,923,938,953,963,969,970,972,975,981,983,987,985,982,982,988,992,995,991,988,986,992,996,996,996,999,1002,1003,1010,1014,1019,1023,1023,1027,1034,1041,1041,1038,1036,1039,1048,1051,1055,1055,1055,1056,1059,1061,1059,1056,1058,1058,1056,1053,1049,1046,1042,1043,1040,1038,1029,1022,1015,1012,1007,1004,1002,997,994,992,990,984,980,974,972,973,978,980,977,974,975,978,981,979,977,971,965,966,967,971,971,969,967,966,973,973,974,970,973,976,981,979,974,973,974,979,979,986,985,984,980,980,978,979,980,974,970,971,973,976,973,969,967,968,966,963,963,961,962,964,964,965,963,959,960,963,964,964,962,960,957,958,962,962,961,957,959,961,965,965,963,960,960,964,968,968,965,959,953,957,958,969,984,1008,1040,1072,1100,1127,1149,1159,1158,1138,1111,1074,1016,948,886,854,855,876,894,910,926,939,952,957,958,957,958,963,969,971,968,964,963,965,969,971,971,969,971,978,982,985,983,981,980,983,994,996,999,998,1002,1008,1015,1021,1025,1029,1037,1047,1047,1043,1030,1022,1028,1036,1044,1044,1045,1041,1044,1048,1051,1046,1041,1044,1042,1040,1035,1031,1026,1024,1014,1001,989,977,969,967,974,980,983,981,975,969,964,959,955,956,960,960,958,952,951,949,949,947,945,948,953,954,955,953,956,957,955,953,953,953,954,956,961,963,963,965,967,974,978,974,966,962,959,958,959,959,959,955,954,953,953,954,956,953,952,950,950,955,954,952,949,956,961,960,950,943,943,952,959,960,951,941,941,945,956,958,950,945,945,951,956,958,957,955,950,953,955,956,957,967,993,1033,1067,1102,1129,1152,1167,1174,1160,1130,1090,1034,967,903,862,845,853,873,895,910,926,940,951,956,958,956,962,969,967,960,954,956,965,970,974,976,980,986,987,982,979,982,988,985,980,977,980,988,995,1002,1006,1007,1011,1017,1023,1026,1030,1034,1038,1043,1046,1044,1045,1043,1038,1032,1035,1038,1042,1045,1046,1050,1048,1046,1036,1029,1020,1012,1009,1005,1004,1003,997,990,988,989,985,981,975,973,975,974,974,965,956,953,955,961,967,967,962,957,958,961,961,954,952,953,955,960,962,962,961,960,960,965,969,972,969,973,977,985,986,987,978,973,972,975,975,970,962,961,965,961,961,958,958,960,959,958,961,958,955,954,950,953,952,953,951,952,952,955,956,956,955,954,953,958,961,957,956,955,958,961,965,967,960,952,951,955,960,960,959,957,955,959,960,967,979,1000,1033,1066,1097,1129,1151,1164,1167,1161,1137,1105,1055,990,928,879,854,851,865,881,899,917,933,947,953,955,957,961,963,966,967,966,970,972,972,973,970,970,970,977,982,985,984,985,981,984,989,994,995,997,1000,1006,1012,1013,1015,1017,1019,1025,1033,1035,1038,1041,1041,1046,1050,1049,1049,1049,1052,1054,1061,1061,1059,1054,1051,1052,1052,1048,1045,1038,1035,1037,1034,1028,1023,1015,1010,1007,1005,1002,996,990,985,987,984,982,977,974,971,969,969,971,969,968,965,967,967,968,964,963,960,963,963,965,966,961,964,967,970,970,967,965,968,970,974,973,974,971,972,979,984,985,984,981,981,983,981,977,976,972,971,969,971,970,970,962,959,965,966,967,962,959,957,958,960,958,957,953,953,955,958,961,957,955,956,960,961,961,960,958,959,961,962,964,962,960,961,963,965,965,964,962,961,964,967,968,964,960,960,962,970,976,989,1013,1041,1077,1107,1133,1154,1168,1180,1179,1162,1132,1096,1044,983,923,879,854,854,869,887,904,922,939,946,951,958,966,968,968,967,965,967,971,972,974,973,973,973,976,979,982,981,981,983,990,994,993,992,988,991,994,1004,1007,1007,1011,1016,1020,1025,1028,1028,1030,1034,1040,1045,1046,1048,1045,1048,1053,1055,1057,1058,1055,1054,1058,1062,1062,1059,1055,1054,1053,1051,1049,1044,1036,1033,1028,1026,1021,1016,1007,1003,1003,1001,997,990,986,982,980,981,979,976,970,971,973,975,971,967,961,961,964,966,963,966,960,961,961,965,965,964,963,962,960,966,964,963,963,965,969,971,973,972,967,968,971,979,981,981,979,982,984,984,982,978,972,971,972,973,971,967,962,962,964,966,966,965,964,963,961,958,955,954,953,952,956,960,960,956,955,954,956,958,962,963,962,962,963,963,962,962,957,957,959,961,961,960,958,958,960,965,965,961,961,959,962,966,964,961,956,957,959,965,977,996,1021,1052,1086,1117,1143,1160,1172,1164,1138,1109,1072,1018,961,904,867,852,852,863,877,892,910,926,939,944,950,956,958,962,967,965,966,965,971,975,976,975,975,975,978,982,982,982,980,983,989,994,994,993,993,992,998,1001,1003,1001,1003,1007,1013,1021
