811,814,812,814,815,817,821,826,828,828,827,830,838,843,846,847,847,853,857,861,859,857,852,850,847,848,849,849,850,846,845,847,846,842,833,825,821,819,819,819,816,816,817,818,813,815,812,807,807,803,809,812,808,807,806,810,808,807,803,789,780,773,769,774,785,809,846,895,940,979,1019,1053,1086,1117,1137,1146,1150,1154,1149,1146,1126,1098,1055,994,933,878,839,818,814,823,837,850,853,846,832,818,809,805,801,800,800,801,803,807,805,803,802,799,800,807,810,808,810,808,809,813,812,810,807,807,803,804,809,808,808,812,813,819,820,818,815,810,810,812,815,815,814,813,815,820,820,819,817,817,817,820,814,818,820,826,833,834,834,831,827,823,823,828,823,825,825,826,831,836,839,834,832,833,834,840,836,831,829,831,839,842,844,841,838,831,833,836,837,835,833,832,832,837,841,837,835,831,832,834,835,833,833,831,830,833,834,836,833,826,826,825,826,830,828,826,825,830,830,828,826,824,825,826,824,826,823,824,823,828,827,827,825,824,816,818,824,825,828,827,827,828,831,835,826,827,827,831,837,835,835,838,842,845,850,854,855,854,857,862,865,871,873,873,871,871,875,877,878,871,867,866,864,860,860,860,862,862,863,860,856,844,834,833,835,838,835,835,834,831,832,832,831,827,826,829,831,828,828,828,826,826,821,812,800,787,785,795,813,837,867,906,947,988,1028,1062,1089,1117,1137,1149,1158,1158,1151,1144,1132,1121,1103,1071,1019,956,896,852,833,828,835,846,861,866,865,859,847,836,825,817,816,817,821,824,823,822,821,825,826,825,824,818,819,817,825,831,830,828,826,822,821,825,824,821,822,822,828,830,830,830,833,833,833,832,829,828,828,836,839,839,838,838,840,839,841,841,837,834,835,841,847,850,847,846,846,848,852,851,847,844,844,846,851,857,857,856,854,855,856,856,850,850,850,851,853,856,857,858,855,851,850,849,848,843,840,841,843,848,849,847,846,843,846,846,845,842,841,836,838,840,844,843,843,842,847,845,841,837,832,834,838,841,842,841,834,830,832,832,833,826,826,822,825,830,831,831,828,827,827,826,827,827,824,825,821,828,829,828,827,829,827,827,828,826,825,825,825,828,831,835,835,831,831,832,836,834,833,834,838,840,844,847,847,850,855,857,862,861,863,865,869,873,872,870,872,873,870,867,860,856,853,855,854,855,849,842,841,837,835,830,823,817,819,821,822,818,815,817,818,821,820,821,817,814,814,815,816,818,811,805,799,791,784,780,787,803,828,863,906,945,980,1015,1043,1076,1102,1127,1136,1140,1140,1133,1128,1118,1106,1082,1036,978,914,857,819,801,804,816,831,837,835,829,822,816,806,797,792,791,795,803,803,804,804,805,803,809,807,805,801,798,799,803,806,807,806,805,809,810,811,807,801,803,805,809,812,813,815,813,812,814,817,813,814,810,809,814,816,816,817,817,820,823,824,824,821,817,818,825,829,829,827,829,829,828,831,828,825,827,824,827,828,830,824,829,832,833,834,828,826,828,826,825,824,823,824,826,829,830,823,818,817,819,821,818,817,817,821,824,827,823,821,818,818,820,820,817,818,814,816,818,824,821,816,814,810,806,807,808,809,808,807,807,809,808,804,800,799,797,795,798,799,799,797,797,802,801,800,801,799,797,798,801,803,800,801,804,807,809,806,804,808,808,812,813,813,815,816,816,824,824,824,824,825,830,838,846,846,849,854,858,859,862,853,848,846,848,846,847,843,839,839,841,845,844,840,830,823,817,815,813,811,806,803,805,811,812,808,801,802,800,799,803,806,803,803,806,811,809,804,799,785,774,767,766,775,793,823,864,907,958,998,1038,1068,1097,1120,1129,1133,1130,1125,1120,1114,1099,1070,1019,959,899,849,818,804,806,817,832,839,835,826,812,804,798,797,791,794,790,795,801,805,804,797,797,800,798,800,802,799,800,804,805,809,809,806,805,802,805,806,807,805,802,803,805,808,810,809,805,807,808,809,807,810,813,818,820,821,820,819,818,820,823,823,819,819,823,828,835,832,830,826,824,827,829,829,830,827,827,832,835,836,836,834,828,828,829,833,831,829,832,832,834,834,836,827,826,824,825,824,827,828,826,826,827,830,831,830,826,821,820,824,825,827,827,826,824,823,828,827,827,825,819,815,820,820,820,821,820,821,821,819,817,808,809,809,813,812,805,808,811,816,816,814,808,808,808,812,811,811,811,812,814,817,817,814,815,817,818,820,822,819,816,816,823,827,831,830,829,831,829,835,838,835,837,843,849,858,862,863,863,864,867,871,869,868,867,868,870,872,869,863,858,857,856,855,857,853,850,845,843,837,832,828,824,824,825,820,819,817,818,820,824,826,826,821,819,818,819,818,815,812,808,803,797,794,790,798,812,839,876,920,957,994,1029,1064,1097,1125,1140,1151,1157,1156,1151,1140,1125,1105,1066,1014,954,893,854,831,824,834,848,855,855,849,840,834,830,828,821,813,813,810,813,815,817,815,817,823,826,828,824,824,824,822,824,823,815,817,822,828,832,828,829,828,830,831,830,828,826,824,832,831,836,838,836,834,834,834,833,834,834,834,837,845,847,847,842,844,845,848,850,850,848,847,847,850,847,848,849,850,851,854,854,852,853,851,854,857,860,862,859,857,854,855,858,858,852,849,849,852,855,859,855,849,845,849,846,849,844,845,846,848,851,852,848,842,840,845,848,851,851,848,847,841,846,848,850,848,845,839,839,842,842,839,835,835,836,843,844,835,834,828,827,832,830,835,832,830,831,838,839,837,834,832,830,836,838,839,836,836,835,839,844,845,841,840,836,838,839,843,846,852,855,861,856,858,859,857,860,867,869,874,878,883,889,896,895,892,890,887,884,889,886,888,883,880,881,881,886,883,877,870,871,867,863,859,858,853,850,853,854,853,852,847,844,842,841,844,842,844,843,845,845,846,850,848,842,836,837,834,828,822,811,805,807,823,846,876,908,939,977,1010,1047,1077,1109,1136,1155,1169,1180,1184,1181,1173,1156,1140,1109,1065,1003,938,890,859,854,860,870,877,880,875,871,863,855,844,838,836,835,835,838,838,832,829,836,842,844,844,839,839,837,842,843,845,842,838,837,843,847,849,848,843,843,845,846,848,843,840,837,838,843,849,851,849,844,844,848,850,849,847,846,850,854,855,856,856,854,852,851,851,856,855,852,856,861,864,863,865,863,862,867,863,864,864,864,866,873,873,871,869,871,868,868,868,866,862,863,862,868,871,868,865,864,864,865,866,865,860,858,858,867,869,868,864,857,858,863,865,861,863,858,855,861,864,866,863,860,861,856,860,859,859,852,854,852,857,858,860,852,850,850,847,849,849,847,847,846,850,853,855,850,850,851,851,850,850,847,852,857,861,860,859,853,851,855,858,860,859,859,864,870,872,871,867,864,864,872,878,880,886,890,892,897,904,908,907,901,901,898,901,903,902,899,896,895,895,896,894,889,887,886,882,878,870,867,866,864,866,865,868,864,857,856,856,854,857,856,855,853,857,859,856,854,854,850,843,834,822,810,813,822,842,871,902,938,977,1014,1047,1077,1104,1131,1160,1180,1191,1196,1190,1180,1161,1143,1109,1059,998,941,898,874,872,875,880,885,886,886,880,868,856,847,846,849,849,851,848,844,841,838,841,842,843,846,849,854,855,856,854,852,847,846,845,847,843,846,848,851,852,854,851,845,847,849,848,846,843,849,853,857,857,854,852,850,851,855,853,852,850,851,861,865,866,866,861,861,862,864,865,864,861,862,863,868,872,874,870,865,865,867,866,870,867,864,868,869,873,875,873,873,866,863,867,869,869,869,866,865,866,869,870,866,860,856,856,863,863,862,860,859,864,866,867,866,859,858,859,860,860,857,856,857,864,866,863,858,853,848,851,851,852,852,849,848,852,851,852,849,845,845,844,846,846,847,847,847,850,850,854,854,848,844,846,845,852,856,856,857,857,862,865,865,862,860,858,862,868,874,879,881,883,890,892,897,897,894,889,888,887,889,895,896,896,889,889,886,883,879,878,875,874,875,871,867,861,858,858,854,851,847,840,839,842,841,843,843,842,840,840,843,844,841,835,833,837,833,829,816,808,800,804,815,836,862,892,929,971,1012,1052,1081,1112,1139,1157,1169,1174,1167,1159,1148,1134,1122,1094,1044,984,921,878,851,842,849,856,863,870,870,868,859,850,841,834,830,832,828,828,824,826,830,832,833,833,834,838,838,835,834,829,824,826,830,832,831,831,833,833,835,834,835,833,827,830,830,837,838,838,838,835,837,837,840,835,833,832,837,840,844,847,844,840,841,845,844,844,843,840,840,848,852,853,852,849,849,850,851,851,848,846,844,848,851,859,857,854,850,849,848,848,845,847,846,850,852,850,848,846,842,846,846,842,839,837,840,845,847,845,845,843,844,844,843,841,837,838,835,842,845,840,838,836,833,833,837,832,830,830,827,831,833,832,828,825,826,827,825,819,819,815,819,824,830,827,829,826,827,827,823,822,816,817,818,825,824,826,826,825,827,826,826,822,824,826,826,829,830,834,837,838,838,835,834,835,839,842,847,847,853,860,867,868,870,867,865,867,865,865,863,863,860,861,862,861,858,854,852,848,845,840,837,831,828,829,831,829,825,819,812,811,816,815,813,808,806,810,816,821,817,815,810,806,803,800,789,778,771,771,782,802,829,866,912,958,1000,1041,1080,1109,1132,1148,1149,1145,1130,1116,1097,1071,1026,966,901,849,822,813,815,821,830,834,833,826,814,802,795,795,797,799,799,797,799,798,802,801,799,795,797,804,806,807,806,802,801,803,805,803,799,798,800,806,808,807,805,801,803,804,802,799,801,801,800,804,809,809,810,809,809,811,809,811,806,807,812,816,816,820,818,813,816,816,818,816,815,812,815,818,824,827,825,822,823,821,825,822,824,819,821,822,825,827,827,824,819,820,823,820,817,814,812,815,816,820,820,818,815,812,814,812,816,812,811,809,814,816,816,810,811,807,808,806,809,807,804,804,806,810,811,807,802,797,797,795,798,794,792,789,794,799,798,795,792,787,789,789,792,788,788,785,784,795,800,799,793,792,788,792,792,794,792,791,794,796,798,799,798,796,796,797,802,805,811,808,805,805,813,814,817,816,814,819,821,829,834,836,841,843,845,846,849,846,843,837,834,837,839,842,836,834,829,828,830,830,825,816,807,805,805,805,802,798,796,795,797,795,790,787,787,785,791,794,794,794,792,790,793,792,788,783,775,767,757,756,752,762,778,805,841,880,918,949,980,1006,1042,1078,1102,1119,1125,1127,1124,1116,1105,1091,1068,1023,967,911,857,819,799,795,800,811,821,825,824,807,796,788,784,785,783,781,777,778,779,780,778,777,778,782,784,788,788,788,788,786,785,782,782,776,777,785,785,787,786,787,787,790,790,791,786,784,785,784,790,797,796,794,794,798,798,794,792,788,791,796,803,804,803,797,797,801,802,803,802,801,804,806,811,813,812,811,807,809,810,812,812,808,806,808,810,813,815,813,807,808,808,810,808,803,803,805,809,812,811,805,803,801,803,803,799,792,799,801,805,804,804,798,796,794,798,798,795,793,788,789,793,794,798,789,787,784,787,789,785,780,780,779,782,784,786,782,777,775,779,779,778,770,772,776,779,783,787,785,782,778,782,784,783,780,779,778,779,785,789,790,785,783,783,788,789,789,786,789,796,802,804,799,799,803,806,809,808,807,814,818,826,832,836,832,830,830,831,833,833,830,824,824,825,824,823,822,819,818,817,813,809,798,792,790,788,791,794,788,787,784,778,779,777,777,774,776,779,783,784,782,779,778,777,774,769,761,749,741,744,755,771,799,834,876,920,959,998,1031,1064,1095,1117,1129,1129,1120,1111,1094,1064,1021,959,890,834,800,783,783,791,803,813,813,810,796,785,773,768,764,769,769,771,770,771,773,773,771,769,767,769,774,777,780,780,776,776,775,778,778,776,771,774,774,776,780,781,778,775,775,778,783,783,780,777,776,777,786,790,791,790,787,785,783,788,786,785,786,790,793,796,797,795,790,796,798,797,792,796,798,801,805,804,804,801,803,802,804,803,799,800,801,805,809,811,807,805,804,801,803,796,797,798,796,802,803,805,802,796,794,796,796,797,791,787,789,794,793,794,792,790,791,789,792,790,785,784,785,788,789,789,785,780,781,783,782,777,775,772,773,777,777,775,773,770,771,771,770,768,769,769,771,778,780,778,777,777,782,782,779,776,773,777,779,783,784,783,781,780,783,784,785,782,783,786,791,792,797,798,797,798,799,803,808,810,808,812,817,826,832,830,830,830,827,831,830,824,826,820,819,821,822,823,821,818,817,811,807,803,796,790,790,792,791,790,786,783,783,782,781,777,774,773,776,780,786,781,779,779,776,774,765,754,741,736,738,750,774,802,832,868,911,947,984,1013,1043,1070,1097,1115,1125,1126,1116,1103,1091,1076,1046,997,930,869,823,797,792,798,804,813,820,816,805,792,780,775,770,771,774,776,774,770,772,774,775,774,768,767,775,777,780,780,778,778,779,781,777,774,772,770,772,776,780,780,780,779,782,784,780,775,774,777,782,782,783,784,781,785,787,790,789,788,784,785,788,792,795,796,796,793,795,793,796,794,788,789,795,799,805,804,803,800,802,801,803,802,796,795,797,805,807,808,805,804,801,801,802,798,796,795,796,803,803,804,797,795,799,799,798,796,788,789,791,796,795,798,793,791,793,796,793,786,783,782,787,793,795,793,788,786,787,791,787,782,777,776,777,780,784,781,782,779,781,781,783,784,780,778,778,783,787,786,786,783,783,784,786,786,780,782,781,787,789,790,789,786,785,785,786,786,789,789,791,797,802,806,805,802,800,798,803,802,807,809,815,826,835,838,842,839,837,836,834,835,826,825,825,827,825,828,826,820,820,815,816,813,805,799,794,795,797,795,794,787,787,785,785,786,779,777,778,783,786,790,788,785,778,782,783,772,766,755,740,739,747,764,784,813,853,897,935,974,1004,1036,1068,1101,1124,1132,1137,1131,1120,1103,1082,1039,974,908,852,814,797,797,805,815,823,824,817,801,786,778,774,775,779,778,775,773,771,771,776,775,775,771,773,775,783,784,781,778,776,776,780,780,776,773,774,774,779,785,786,784,778,775,779,777,778,779,777,781,784,788,788,786,782,782,785,787,788,786,783,783,786,795,799,796,792,793,793,796,793,793,794,794,796,802,800,797,799,798,801,803,799,794,795,799,802,807,809,806,801,798,800,805,800,799,797,796,799,799,802,801,796,794,792,794,795,793,792,790,792,797,800,801,799,792,788,788,790,791,792,792,791,792,797,797,796,791,788,780,782,783,789,785,784,782,783,784,784,783,779,774,773,774,775,775,777,777,781,783,780,779,774,776,777,779,783,785,781,781,785,785,787,788,786,781,780,779,785,788,788,787,788,787,793,788,788,786,786,787,793,799,798,795,795,799,805,808,811,811,813,815,821,826,828,832,834,830,832,831,828,826,823,824,823,827,827,824,820,818,816,815,813,803,800,791,790,788,789,788,786,782,781,778,781,778,775,776,776,777,781,782,779,777,778,777,772,768,756,745,735,736,744,755,775,800,836,875,922,958,993,1020,1053,1080,1106,1122,1126,1124,1119,1108,1097,1086,1065,1030,976,912,859,819,798,790,792,799,808,805,806,797,788,777,766,768,772,773,769,764,765,760,763,768,767,769,764,771,774,775,773,770,767,767,766,764,763,762,763,773,777,773,770,767,767,769,772,773,772,772,772,772,775,777,775,776,772,774,777,776,777,776,776,779,787,789,788,784,782,781,786,785,787,789,791,793,796,793,791,788,791,790,792,791,792,794,792,795,798,798,797,792,789,790,793,793,791,791,787,791,795,795,793,790,787,789,789,787,786,787,790,791,795,789,788,787,786,786,786,778,776,778,784,788,787,782,781,777,778,777,774,771,767,766,772,774,781,775,767,767,766,767,774,768,766,768,771,775,776,777,771,766,767,774,775,772,772,772,773,777,784,784,780,775,773,772,777,775,775,777,777,782,786,782,783,779,781,783,783,783,784,786,792,795,797,797,802,808,811,817,816,819,819,823,828,831,832,825,825,824,823,821,816,808,809,811,816,815,812,802,796,795,791,788,785,781,776,779,781,782,783,779,777,776,776,780,774,772,774,777,775,782,781,772,767,760,754,745,734,731,745,766,800,840,881,918,960,1001,1037,1071,1097,1110,1118,1124,1114,1103,1084,1055,1019,960,899,847,806,787,782,793,806,815,813,804
