812,812,815,817,821,821,821,821,820,816,814,812,809,814,816,817,820,820,819,821,819,819,818,814,816,816,821,820,823,823,823,823,820,818,814,812,813,817,817,821,822,823,823,821,818,820,817,815,814,814,814,818,822,824,822,824,821,818,816,816,817,818,819,820,822,822,822,821,819,817,816,815,817,819,817,822,825,825,823,822,821,818,816,817,819,818,821,822,826,829,834,836,834,832,835,834,838,837,841,845,850,853,850,853,850,853,847,845,842,843,840,843,846,846,842,837,835,826,821,816,810,815,815,818,821,821,818,822,818,816,811,810,808,810,812,815,814,816,816,816,815,816,815,813,813,815,816,819,819,822,825,828,837,851,867,889,916,942,960,971,960,929,885,832,776,729,692,669,665,678,696,722,744,762,775,789,796,809,814,819,819,819,819,822,823,823,824,826,821,827,826,824,827,830,831,835,836,839,838,837,834,835,834,834,835,839,839,844,843,847,848,849,848,845,846,843,844,846,847,845,853,857,857,858,859,856,855,851,854,858,858,866,868,871,872,872,874,873,875,875,877,882,885,890,896,897,904,907,905,905,909,914,915,917,924,929,932,934,935,940,940,941,941,939,942,944,945,946,945,945,941,939,933,928,920,914,907,902,900,894,891,886,880,874,866,859,853,851,847,844,843,843,840,838,839,836,832,830,827,821,823,825,821,825,823,824,826,824,823,820,819,821,821,821,821,825,827,828,826,823,821,825,820,820,821,824,824,828,827,827,827,825,823,820,820,816,816,818,820,819,822,823,824,826,825,823,822,817,817,815,818,824,824,824,820,820,817,813,812,813,815,814,817,815,820,822,821,819,818,817,811,812,811,813,814,813,816,819,818,818,816,815,811,811,812,812,813,810,816,818,815,815,816,813,810,804,803,807,810,811,816,815,816,812,811,810,807,807,808,808,812,811,815,814,813,809,812,805,806,805,807,806,806,812,810,812,811,811,810,811,810,807,807,808,810,812,811,812,812,808,807,809,804,803,806,809,809,810,812,814,813,814,810,811,811,809,809,809,809,810,814,811,812,812,809,809,808,807,807,809,812,813,814,813,812,812,812,808,807,806,808,808,810,809,813,813,814,817,815,812,810,810,809,811,814,815,818,816,818,813,812,809,810,810,811,809,814,816,816,818,818,818,817,815,812,813,817,819,822,827,830,834,835,836,832,833,832,834,838,842,845,850,850,853,850,849,847,841,837,835,834,837,836,837,834,832,826,823,819,816,814,813,816,814,816,815,814,816,817,814,811,809,810,808,809,809,810,812,814,816,816,816,813,815,816,811,815,818,823,827,839,849,866,880,900,926,952,968,974,957,928,881,830,781,733,693,662,647,649,662,685,709,728,745,758,773,785,801,811,820,822,826,822,824,823,823,828,833,828,834,825,829,834,833,832,835,835,840,841,844,842,839,837,838,841,837,839,839,843,846,849,853,854,852,849,849,848,849,852,849,853,857,858,861,857,863,863,864,865,865,863,865,866,870,874,877,876,880,880,881,882,886,890,895,898,905,906,911,915,920,922,926,923,924,927,925,931,935,938,943,949,950,947,948,947,949,949,952,951,950,949,947,946,944,940,935,932,924,919,917,914,908,903,898,892,884,880,874,868,862,859,854,854,853,852,850,849,846,844,842,841,839,837,836,838,838,839,843,838,837,835,834,834,832,834,834,836,836,837,840,836,836,834,834,833,835,835,835,838,836,840,841,838,837,837,834,834,832,834,833,830,836,836,841,839,840,836,832,833,833,831,832,831,831,831,833,827,828,825,827,825,824,823,824,827,828,828,832,831,831,828,826,824,820,819,821,821,824,825,827,824,825,820,821,822,819,820,814,816,817,820,822,820,819,818,819,820,817,815,817,818,820,823,824,822,820,820,816,816,813,814,816,817,820,820,821,821,819,819,820,817,818,818,819,818,819,822,823,821,821,818,819,816,816,813,816,820,823,823,827,824,822,820,819,815,816,815,817,818,823,825,826,824,826,822,820,817,815,818,818,819,820,821,823,821,824,824,823,821,821,819,818,819,823,824,823,824,822,822,823,819,820,820,817,819,824,822,824,828,827,825,824,821,822,824,823,824,828,828,830,832,829,827,828,824,823,822,824,825,824,826,830,829,829,832,830,832,835,838,838,837,839,845,848,848,851,849,850,855,853,856,857,857,859,857,857,854,853,851,849,849,848,842,836,833,832,831,830,830,829,828,829,827,824,826,825,825,824,825,825,825,822,819,818,823,822,821,824,822,823,824,828,828,829,830,826,829,830,839,855,877,899,934,963,988,1001,999,976,935,887,835,782,740,704,685,683,694,715,738,754,769,787,798,811,821,827,835,839,841,839,834,833,833,831,832,836,840,842,848,846,848,849,848,846,845,846,842,842,846,848,851,853,854,854,852,851,854,851,851,859,859,860,862,863,863,864,863,862,860,862,861,863,865,868,871,875,878,878,879,881,880,878,877,881,884,886,891,898,899,902,903,907,906,910,914,918,919,923,934,936,939,940,942,944,945,947,947,953,956,962,965,968,970,966,968,964,963,964,962,962,961,958,957,956,952,948,943,938,930,923,916,911,907,899,894,889,885,881,872,869,865,861,854,851,853,849,849,850,850,845,847,842,842,838,837,833,836,838,840,841,841,840,839,838,836,833,832,833,837,836,838,840,840,837,839,841,837,836,835,835,836,839,838,845,842,839,838,834,832,830,831,831,835,836,839,839,838,837,836,837,832,832,833,832,833,834,830,835,833,830,829,827,827,824,824,824,825,827,825,826,830,826,826,824,822,819,820,819,821,822,824,826,825,825,823,821,818,817,815,814,817,819,821,821,823,823,821,821,816,814,814,817,819,818,821,821,815,819,820,820,817,813,815,817,818,820,823,826,822,822,821,821,817,815,816,815,815,818,821,824,824,822,821,820,818,814,813,816,816,821,818,820,817,822,820,819,819,818,817,817,819,820,821,822,822,821,817,815,816,815,814,814,817,817,820,823,823,822,821,819,818,820,816,818,818,817,818,819,817,820,819,815,817,817,816,815,816,821,820,824,822,824,822,817,817,813,811,816,817,818,821,825,824,822,822,817,815,815,817,817,817,821,820,822,824,826,826,827,829,831,833,835,840,841,843,844,844,847,845,849,849,851,853,852,856,853,857,856,853,848,845,844,841,838,838,834,831,826,826,826,823,826,822,823,820,817,816,814,819,818,819,817,818,818,816,818,813,814,812,811,816,813,819,822,822,821,820,820,818,821,820,818,822,832,843,859,876,899,923,950,967,975,965,938,899,846,796,749,707,674,656,654,666,687,706,725,747,761,777,796,808,818,820,824,827,829,824,823,827,828,831,837,836,837,839,839,837,837,836,835,839,841,843,848,848,845,845,845,846,845,845,844,847,849,851,854,852,854,855,851,849,851,849,850,849,850,855,860,864,862,864,862,865,863,866,864,870,874,875,878,879,878,878,881,881,881,885,892,896,902,906,909,911,917,915,919,917,924,925,928,932,938,942,949,952,956,956,956,957,957,957,957,962,964,965,966,966,964,963,958,953,952,945,941,936,934,935,933,925,920,913,902,895,889,880,875,872,867,866,868,863,859,855,851,848,846,842,842,842,840,844,843,844,841,841,841,838,837,838,834,836,836,841,845,841,841,837,836,836,833,831,832,837,840,839,842,839,840,838,841,832,834,833,832,835,839,839,841,842,840,841,837,840,837,835,833,835,838,837,839,838,835,834,830,830,829,824,827,831,834,834,835,836,835,833,829,827,826,825,822,822,825,830,827,827,829,831,830,826,829,823,824,827,825,828,831,830,828,827,826,824,824,823,822,821,829,831,832,832,829,829,828,821,821,818,823,825,824,826,829,830,828,827,826,828,822,822,823,824,822,827,830,829,828,827,828,824,824,823,825,822,825,827,830,831,828,827,826,824,823,822,822,823,825,827,829,829,830,827,830,828,829,824,824,827,827,828,830,829,826,825,828,826,825,823,826,825,829,828,832,830,829,827,824,826,825,826,825,825,830,829,831,833,831,832,831,829,828,827,824,826,826,829,832,832,830,831,827,827,828,828,828,829,831,834,834,831,832,836,835,836,839,841,846,849,851,851,855,854,859,859,863,861,861,858,858,859,857,858,858,857,856,854,854,850,847,843,838,837,834,834,838,836,837,835,832,828,824,826,826,824,829,829,832,831,828,827,825,822,824,822,824,827,829,833,833,835,836,835,835,833,835,839,853,868,900,929,958,986,1006,1011,996,962,913,859,808,757,719,692,686,692,711,736,758,774,788,800,812,823,836,843,847,846,843,840,839,842,840,839,842,845,848,852,854,854,856,856,855,856,855,855,853,855,856,858,864,864,867,864,864,861,863,864,864,867,869,872,876,874,873,871,873,870,870,868,873,874,877,878,882,884,888,889,890,889,888,889,891,896,895,897,902,908,911,911,916,917,921,923,925,931,936,939,944,950,949,951,955,954,958,961,964,963,973,972,976,974,977,979,979,976,975,972,969,967,966,964,963,957,953,947,941,933,928,921,914,911,907,904,899,895,889,883,877,873,870,864,860,860,861,859,860,853,854,854,852,848,843,843,844,847,846,848,852,851,850,850,848,845,842,840,842,842,843,847,850,850,849,847,847,844,844,841,842,844,848,848,849,848,845,846,843,843,844,843,842,844,844,844,848,848,851,846,844,841,838,835,835,839,837,838,838,839,839,838,837,837,835,833,834,835,834,835,835,840,838,836,833,830,828,828,830,831,833,835,837,837,837,837,833,832,831,829,831,831,830,832,835,836,836,834,831,832,826,828,827,826,832,833,833,833,832,832,827,828,826,826,824,829,829,831,834,834,834,833,831,830,828,829,825,829,828,827,828,833,832,835,830,829,825,822,824,828,833,829,829,830,831,831,828,828,828,827,826,830,833,832,834,834,835,833,830,829,829,828,827,828,832,834,836,836,836,834,832,831,829,828,828,830,829,831,834,833,833,834,831,832,830,830,831,830,833,833,837,836,836,835,831,829,829,831,831,831,828,836,837,837,835,832,833,830,828,832,833,832,829,830,839,839,838,838,839,837,835,835,837,837,839,841,842,844,847,850,849,847,848,848,849,851,856,861,866,871,874,876,872,873,870,870,865,862,862,860,861,863,859,859,853,845,840,838,834,834,833,836,833,835,838,835,832,829,830,826,824,824,822,827,831,830,832,829,829,824,822,823,826,828,829,831,834,833,832,833,833,836,836,841,851,866,883,903,932,961,982,991,984,959,917,866,812,763,726,698,682,684,699,718,738,750,765,778,796,808,823,831,840,845,844,844,845,840,840,841,843,847,850,852,855,855,856,856,855,854,854,850,852,856,858,859,866,865,866,865,866,864,863,865,863,865,864,868,870,869,871,871,869,870,872,871,871,873,875,877,880,883,877,881,879,880,880,882,884,887,889,895,896,902,901,901,902,902,906,908,905,912,917,920,924,928,929,933,939,941,944,946,948,951,958,961,966,969,970,974,972,975,975,977,978,977,979,979,980,984,980,979,976,972,964,962,954,949,946,947,941,938,930,925,918,909,905,901,895,891,888,885,881,879,875,870,864,863,858,855,854,855,857,854,857,858,855,855,852,849,847,847,846,848,850,852,853,853,854,855,854,854,851,851,850,850,851,857,857,858,856,857,854,852,848,850,851,850,855,856,857,860,858,855,854,853,854,855,851,851,851,848,850,854,853,854,850,849,847,847,847,847,847,846,850,851,848,848,844,844,842,841,841,843,843,843,845,842,844,844,842,839,837,835,833,838,839,841,839,843,844,844,843,840,834,836,836,837,838,840,841,844,843,843,839,839,838,834,836,837,836,836,839,841,841,840,837,838,836,837,832,834,837,838,843,843,841,844,841,837,837,833,835,834,838,838,839,840,838,838,837,837,836,835,836,838,841,838,838,843,844,844,842,837,836,833,832,834,835,839,839,843,840,841,840,839,840,838,836,836,836,839,839,843,840,836,836,839,837,835,835,836,840,841,840,840,843,842,842,843,838,835,838,838,839,838,842,842,844,843,841,840,839,842,842,843,845,845,847,848,848,849,845,844,843,843,845,848,851,856,859,860,860,860,863,864,862,864,867,874,879,882,882,881,882,879,875,871,863,862,861,859,859,861,860,854,851,848,849,847,845,843,845,842,844,844,844,843,843,842,840,838,841,838,838,837,839,839,843,845,846,842,844,841,840,838,841,840,844,846,854,861,875,891,913,938,971,992,1008,1007,982,942,892,834,778,729,696,683,690,711,734,758,776,792,804,818,832,841,849,854,856,852,851,854,857,856,861,861,862,867,867,866,866,863,867,868,868,868,875,875,875,875,870,872,873,875,875,876,877,876,880,882,883,884,881,879,879,876,883,885,886,889,892,894,894,891,894,893,890,889,892,893,895,900,903,906,911,911,911,912,908,911,915,919,920,925,933,934,939,940,943,944,946,949,952,956,958,967,970,973,974,976,978,980,975,975,977,980,983,984,985,989,987,988,981,979,977,973,970,967,967,964,963,957,951,946,940,932,925,918,915,909,907,905,903,899,893,888,885,877,878,874,870,870,869,868,868,867,866,866,867,865,864,860,861,858,861,864,866,861,859,858,857,858,854,855,856,861,861,863,865,867,867,866,865,864,861,860,859,862,865,864,866,866,869,869,866,862,860,860,859,859,859,864,861,860,857,859,856,855,855,853,852,854,854,854,856,858,856,855,853,852,848,846,845,844,849,850,851,850,850,849,851,847,847,840,842,844,846,845,846,850,847,846,846,845,844,844,842,843,842,845,845,849,847,847,844,841,841,838,839,838,838,842,844,848,845,847,844,846,844,843,841,840,844,842,846,844,843,842,842,841,841,842,841,840,842,842,843,848,844,844,842,839,839,840,841,840,845,845,847,849,847,847,846,844,841,842,840,839,842,846,845,848,848,847,848,845,841,840,842,841,845,845,846,847,846,843,845,843,841,838,839,839,842,842,846,846,847,846,842,842,839,839,839,839,844,843,846,849,850,848,848,845,843,842,838,837,842,838,843,844,845,846,846,843,840,840,840,842,846,846,848,848,854,856,854,854,855,855,856,860,866,870,873,879,880,880,880,879,876,873,868,868,866,864,867,869,869,864,857,853,848,844,842,842,839,844,845,846,845,844,840,841,837,834,833,835,834,835,835,839,841,841,837,834,832,836,834,835,835,834,839,843,846,845,845,849,857,873,891,914,944,970,996,1004,997,970,929,878,826,777,736,705,695,701,717,744,763,781,788,800,808,817,829,838,845,849,854,853,853,853,851,853,851,851,854,855,858,859,861,860,862,863,862,860,858,859,857,861,864,866,864,864,868,870,865,865,864,863,862,865,867,871,872,875,876,877,874,872,869,868,874,874,877,879,883,884,886,886,885,886,890,891,892,895,900,903,902,909,912,913,915,914,912,919,918,927,929,932,942,947,951,950,950,952,957,958,959,964,963,967,969,971,972,975,977,975,974,970,969,969,971,970,968,969,966,959,952,946,940,934,929,924,921,919,914,910,904,898,891,887,881,877,873,868,868,867,868,867,862,859,857,854,849,853,851,851,852,852,854,857,851,852,849,848,846,843,843,844,848,848,853,854,854,853,853,850,849,845,845,843,847,846,849,850,849,847,848,848,846,844,845,845,851,850,849,851,850,848,847,843,842,840,841,841,841,846,843,847,847,843,841,837,840,836,835,836,835,838,839,840,836,836,836,835,832,832,832,830,832,835,834,832,833,831,831,833,827,826,824,825,827,831,830,830,832,829,828,829,827,824,824,823,824,826,829,830,831,828,826,824,825,825,823,824,827,826,825,827,828,827,828,826,824,823,822,823,825,828,829,830,828,828,827,826,822,822,822,820,822,827,826,830,829,831,827,825,824,824,823,824,826,827,827,832,828,829,826,825,824,823,822,824,824,826,827,830,829,826,828,827,820,819,819,824,826,828,830,833,831,830,830,830,827,825,825,822,823,824,828,831,828,828,830,831,828,827,825,827,829,830,832,833,830,831,827,828,824,827,826,828,828,831,834,842,843,845,847,848,847,846,844,844,846,851,855,863,864,866,865,862,860,857,853,847,852,850,850,851,844,843,837,834,829,828,826,824,825,828,830,834,830,830,824,823,819
