878,877,877,875,867,862,858,854,852,852,848,848,850,851,849,848,848,845,842,839,838,840,843,844,842,846,844,842,840,838,840,838,839,841,842,844,846,848,848,849,851,851,854,865,876,897,917,942,972,998,1009,1006,982,941,896,843,795,752,715,691,686,695,717,741,756,768,779,789,803,821,834,845,852,856,856,855,852,851,850,852,851,856,859,861,864,862,862,863,857,861,858,857,859,864,862,864,865,868,871,871,869,868,869,864,866,866,869,869,870,874,873,875,874,875,874,874,871,878,878,878,883,883,883,887,888,885,886,884,888,891,895,898,903,906,908,906,908,912,911,912,913,916,922,928,934,938,942,944,949,948,949,954,957,960,967,968,971,976,973,974,974,975,972,978,978,978,981,979,979,975,972,966,961,955,947,941,936,932,928,921,920,913,908,903,897,891,885,880,875,873,872,872,871,870,869,867,863,860,860,859,856,854,854,858,858,857,858,858,857,855,851,849,846,848,848,852,855,854,855,858,854,854,852,852,850,849,856,855,856,858,859,857,853,852,851,852,851,851,852,854,854,855,853,852,853,849,846,845,848,846,845,846,847,845,847,844,843,844,841,840,837,836,837,837,840,840,844,843,842,838,832,831,830,830,836,837,838,840,840,839,836,834,830,834,832,834,838,837,837,839,835,838,836,829,829,826,829,831,834,836,835,838,836,838,835,833,834,832,830,827,831,831,831,834,836,833,832,832,829,831,831,832,835,838,838,838,836,837,836,832,830,830,832,828,835,835,836,838,838,840,838,836,834,832,831,830,831,833,833,836,834,837,835,832,829,828,830,831,831,834,834,836,835,836,834,835,832,833,832,833,835,840,839,840,839,838,839,834,831,830,829,833,831,834,836,840,842,842,839,838,839,835,834,836,837,838,841,841,840,838,842,842,842,840,844,846,850,853,857,859,858,859,858,857,857,860,865,870,871,875,877,878,877,872,871,866,862,860,859,859,855,855,855,850,847,844,841,842,836,834,836,839,835,837,839,836,834,836,835,832,828,830,830,831,834,836,839,841,839,841,840,838,835,836,837,839,840,849,858,869,887,906,928,954,982,1003,1009,1000,973,928,876,824,774,734,704,688,690,708,728,750,768,783,797,811,823,835,839,845,848,847,843,843,845,846,849,851,856,856,856,855,855,853,853,854,858,857,859,863,862,865,862,863,863,860,861,863,867,868,870,871,873,870,870,872,870,869,871,872,874,878,880,882,884,885,883,886,886,885,885,888,891,890,898,902,903,906,907,907,911,911,911,919,920,923,928,931,934,936,938,939,941,944,947,951,950,958,962,965,967,970,973,971,972,971,972,974,973,975,976,977,972,970,969,962,956,950,944,940,937,936,934,929,919,915,910,901,896,888,878,875,878,874,872,877,873,870,867,859,860,855,854,855,854,856,857,857,856,858,856,853,851,851,849,851,848,853,853,855,854,856,853,851,849,851,850,848,851,853,856,857,857,858,858,853,854,853,850,851,854,855,858,858,860,857,854,854,850,849,850,847,849,852,851,852,852,851,853,848,848,847,844,844,843,847,846,848,849,848,846,845,843,842,841,841,840,843,846,845,842,845,846,842,841,840,835,836,835,838,840,842,841,838,838,841,838,839,835,836,836,838,840,841,839,840,842,839,838,839,837,835,839,839,842,841,842,837,842,838,837,836,832,833,834,839,840,844,840,842,839,837,836,838,834,835,830,838,841,840,840,837,836,836,837,838,835,837,838,836,841,844,839,836,836,835,832,834,832,838,839,837,843,844,845,843,843,839,838,836,834,838,838,839,836,840,841,840,840,840,840,837,839,839,842,842,843,842,842,840,838,837,834,836,836,839,841,843,841,844,843,842,842,837,838,841,836,835,839,840,841,840,842,845,846,842,842,843,845,849,849,855,858,863,864,862,860,862,863,866,869,870,871,870,873,876,875,871,869,865,861,861,855,855,855,857,853,850,848,845,844,839,839,838,835,840,839,838,837,837,836,837,836,835,835,835,833,834,833,836,835,841,835,835,835,835,833,838,839,839,843,848,853,867,884,908,931,955,977,998,1005,994,970,931,885,838,791,750,715,697,694,706,722,744,760,777,787,803,813,824,835,843,845,846,844,842,844,846,850,852,852,852,854,852,851,850,852,851,853,854,858,862,860,862,862,859,860,860,860,860,855,859,863,865,865,864,865,864,861,860,862,863,866,866,871,869,872,871,869,874,869,871,865,869,870,873,879,882,884,886,887,888,889,891,889,893,894,899,903,907,910,910,914,916,914,919,922,924,930,933,941,945,947,947,952,953,953,955,958,958,961,967,970,971,970,970,970,970,970,968,967,966,960,961,957,953,947,940,933,927,920,912,906,898,897,894,891,889,883,881,876,870,865,859,854,853,849,849,851,851,852,850,851,847,844,844,842,843,845,845,846,850,847,847,841,841,842,841,839,839,841,844,844,850,848,845,849,843,844,840,839,841,841,844,845,848,846,847,849,851,847,843,840,841,842,848,847,849,846,844,843,842,839,841,839,840,840,842,844,844,843,842,838,838,839,836,832,831,834,835,835,835,838,836,835,836,833,834,830,834,833,835,832,834,833,833,831,832,830,827,827,825,828,831,832,836,834,831,832,829,829,830,826,825,827,832,832,835,834,832,832,832,831,831,829,828,825,827,829,831,830,833,833,831,834,832,830,827,829,831,833,833,836,836,834,833,829,828,825,827,831,833,833,835,836,836,835,834,831,831,828,830,831,831,835,836,836,836,833,832,831,832,829,827,828,832,833,837,836,835,833,831,832,831,827,832,828,830,832,834,838,835,836,831,829,830,830,828,830,833,832,838,836,836,834,835,834,831,829,830,832,830,831,833,836,832,834,830,836,833,831,831,831,836,837,842,842,844,842,844,844,845,847,851,853,853,859,862,869,871,872,872,871,873,873,870,868,864,863,863,857,861,860,856,854,853,846,843,841,840,843,843,842,840,840,836,834,832,829,828,828,830,832,833,836,837,837,834,834,832,829,830,830,830,833,837,836,835,835,838,841,848,857,871,893,920,946,978,999,1003,987,950,899,840,783,733,693,670,659,667,691,712,735,751,762,777,788,804,818,831,838,846,844,842,842,839,840,840,841,841,846,847,851,852,854,858,855,853,850,852,854,852,854,858,860,861,861,860,863,864,860,859,855,858,859,863,863,867,869,869,870,870,871,866,869,868,871,874,876,880,881,882,882,883,885,887,889,891,895,902,905,908,910,911,912,913,913,916,919,921,927,930,935,941,944,946,951,952,956,960,957,962,963,966,969,974,974,975,977,977,975,973,972,972,971,971,971,971,969,965,958,948,945,936,934,927,923,919,915,909,909,901,895,890,886,880,877,873,869,868,868,870,869,863,864,860,857,858,854,853,855,854,856,855,858,858,857,854,854,852,850,850,854,858,859,861,861,863,859,858,860,857,856,855,857,855,857,858,859,861,859,858,860,858,856,855,853,856,859,862,859,861,860,859,856,856,853,850,851,856,857,857,854,854,855,852,847,845,842,843,846,848,847,849,848,848,847,843,843,843,841,842,843,843,843,846,845,840,840,839,838,835,834,835,837,840,841,842,842,841,842,840,842,837,837,837,836,839,839,841,838,843,839,839,838,839,838,839,839,841,838,842,846,841,840,839,838,836,833,836,840,841,839,840,842,838,840,838,836,836,835,835,835,838,840,842,843,842,841,840,839,839,836,836,838,838,842,842,845,844,841,840,840,837,838,837,839,841,844,846,846,843,844,842,842,838,837,839,840,839,839,841,841,842,841,842,843,838,835,836,839,841,842,846,845,844,841,842,842,839,837,837,837,841,843,844,846,843,844,842,841,839,840,839,842,843,846,848,848,847,846,849,845,846,848,849,857,856,861,868,868,870,871,872,874,874,874,876,873,874,879,876,874,871,867,867,864,862,860,857,853,852,849,848,849,847,845,843,840,839,836,837,837,836,837,839,840,840,840,836,837,833,830,833,835,834,839,842,843,841,842,844,845,842,843,845,855,871,889,909,934,962,990,1009,1016,1008,981,937,887,829,781,737,708,695,698,714,737,756,776,791,804,819,831,844,851,858,858,852,851,849,848,851,852,856,859,858,859,858,857,858,863,859,860,861,864,865,869,873,873,873,873,872,870,867,869,868,870,873,874,879,882,879,878,876,879,876,874,877,878,877,884,886,886,887,892,890,893,890,893,894,898,902,905,907,911,912,913,914,916,915,917,923,928,932,939,947,950,951,955,957,959,959,961,964,966,974,974,979,983,985,984,984,983,981,982,986,984,988,988,986,990,987,982,975,970,963,957,953,949,945,941,938,933,924,917,911,903,896,891,887,883,882,881,879,877,873,872,867,866,862,860,858,860,860,863,861,862,860,860,857,858,854,854,852,858,859,862,862,865,864,864,861,861,858,854,856,856,857,858,862,865,864,863,866,862,860,860,861,860,861,862,865,868,867,865,865,858,857,856,856,857,855,861,863,862,861,859,858,855,854,851,851,848,849,851,855,855,851,854,854,851,850,847,844,847,848,849,850,851,849,848,848,848,846,843,845,844,844,849,850,850,851,852,851,847,847,843,844,843,844,845,849,848,848,849,847,846,847,847,846,848,845,848,853,850,846,843,840,842,843,839,841,840,842,843,846,851,847,850,847,848,846,842,841,843,842,846,849,849,848,847,848,846,844,845,846,844,846,848,850,850,848,845,846,846,844,842,843,843,846,848,848,852,850,850,847,846,846,845,844,845,847,846,847,849,849,850,849,848,847,843,844,845,846,846,845,847,848,850,848,841,842,840,843,848,850,851,853,852,848,846,849,845,846,845,843,847,849,850,852,852,853,853,849,847,844,843,847,849,851,852,857,859,860,863,861,861,864,867,865,867,871,876,877,881,885,883,881,879,878,873,874,873,872,870,875,873,871,867,862,857,848,848,846,847,847,849,850,852,847,848,844,838,838,836,835,837,839,839,845,844,845,846,842,840,840,841,840,843,845,849,851,855,859,870,882,900,922,950,976,996,1004,988,956,904,847,792,740,702,675,671,684,705,730,754,771,788,799,812,826,836,842,851,851,850,853,852,849,851,854,858,859,862,858,857,859,863,861,861,866,867,870,868,867,865,866,864,867,867,869,871,875,874,876,874,874,875,873,875,875,872,873,879,883,882,885,884,887,883,884,881,882,885,885,889,892,898,900,903,904,904,905,903,906,908,916,918,926,930,934,934,938,943,940,944,948,952,959,963,969,971,975,975,976,978,979,978,980,983,989,987,988,989,989,986,982,978,977,976,971,972,967,965,962,954,949,944,937,931,920,917,912,908,903,897,896,892,888,884,880,875,873,869,868,868,868,869,867,869,869,864,863,860,858,857,858,858,858,862,863,861,861,862,861,859,858,855,854,856,858,862,861,862,862,864,863,862,855,859,855,854,858,860,863,862,866,866,862,863,861,860,857,854,856,860,860,862,863,859,858,856,855,855,850,853,854,856,855,856,858,858,855,852,852,848,845,847,847,848,851,851,851,851,850,848,845,845,845,842,848,849,848,851,849,851,850,845,845,843,844,843,847,848,849,849,847,847,845,845,842,842,838,838,838,841,844,850,850,848,846,847,845,842,839,842,844,845,847,848,850,849,846,848,846,843,843,844,845,847,844,848,850,848,848,847,845,841,842,843,844,848,849,851,851,849,848,847,848,843,847,845,847,846,846,849,847,850,850,848,846,847,844,845,844,846,849,851,851,850,849,850,846,846,841,844,848,849,850,852,857,856,851,850,849,849,849,846,849,848,852,855,855,854,849,850,849,848,846,850,851,853,856,859,862,864,867,867,865,868,868,867,869,875,879,882,884,886,887,880,881,879,873,873,871,874,873,875,874,872,869,861,857,852,848,851,847,849,847,850,849,850,849,847,844,844,840,843,842,841,842,844,848,847,846,843,842,841,839,843,844,843,848,847,852,852,851,853,854,856,865,877,900,924,953,979,1005,1018,1009,986,946,894,841,791,747,716,702,709,726,746,766,783,797,806,817,829,838,850,855,859,860,861,858,858,857,856,854,858,862,864,865,866,862,867,865,865,866,864,864,865,870,871,871,874,874,874,870,867,868,867,870,871,875,878,879,882,882,881,885,885,881,885,885,886,889,886,888,894,897,895,896,898,897,898,893,900,901,908,914,916,918,921,920,920,924,926,926,933,937,943,947,955,956,960,960,961,963,966,967,967,972,972,976,983,983,986,984,984,980,981,978,981,981,977,976,974,970,966,958,955,951,945,939,932,929,925,923,917,911,909,903,899,890,886,882,878,876,879,876,879,872,870,871,867,864,866,863,862,861,862,864,867,867,867,865,864,863,861,861,859,861,863,865,870,871,867,868,863,861,861,862,863,864,864,867,869,867,865,866,866,864,866,862,861,864,865,867,867,868,864,861,861,860,861,860,862,859,862,862,862,862,862,859,857,854,854,853,851,855,854,856,860,860,859,859,855,853,854,853,850,850,851,852,852,853,852,852,848,847,847,845,845,847,845,848,852,852,850,850,850,847,847,847,848,846,848,850,851,850,851,852,848,843,846,846,848,849,850,851,854,850,850,853,851,847,850,847,847,847,849,850,853,852,849,852,847,843,844,845,846,847,851,854,854,853,850,853,847,849,848,847,847,848,847,852,851,853,856,854,850,849,849,846,844,847,850,853,855,854,853,855,851,850,850,851,851,851,851,853,855,855,853,853,850,852,849,848,849,850,848,853,857,855,855,855,851,850,849,849,851,851,850,852,854,855,853,852,851,851,847,848,850,852,851,856,857,856,855,856,854,849,852,851,853,857,862,865,868,871,873,873,873,871,870,871,876,881,885,887,891,890,890,887,885,875,872,870,868,869,873,872,871,867,860,858,855,851,850,848,847,847,850,852,852,851,852,848,843,839,842,841,841,842,838,841,843,846,846,847,844,843,845,843,843,844,847,849,854,856,858,867,890,909,934,960,982,995,987,963,923,869,817,768,724,699,695,701,722,745,768,784,798,811,825,832,840,847,851,850,849,849,850,850,854,854,858,858,857,862,859,857,857,860,862,864,867,869,870,872,870,867,865,865,866,865,869,873,874,876,875,875,874,872,873,871,869,872,873,881,883,881,884,882,883,883,882,881,883,886,893,895,899,899,903,903,903,906,907,909,913,918,925,929,934,938,939,943,946,947,946,950,954,959,964,966,970,972,971,975,974,973,975,972,973,973,974,975,975,977,973,966,963,957,952,947,942,937,937,934,930,926,920,911,902,895,891,883,880,880,880,881,881,878,875,872,867,863,862,858,858,857,859,859,860,862,860,858,858,857,857,856,852,858,857,860,859,859,858,859,857,857,855,854,853,855,857,858,857,858,861,862,859,856,853,850,848,850,855,856,858,859,858,856,852,851,849,849,849,850,851,850,852,850,851,847,846,845,845,842,843,845,846,847,849,849,849,848,847,845,843,843,841,842,846,843,847,850,847,847,842,845,837,839,839,840,841,844,846,843,845,845,840,841,841,841,840,843,844,845,846,847,847,844,843,843,841,841,839,844,841,846,849,847,848,845,846,841,839,841,837,840,844,844,844,849,844,844,839,838,841,842,842,842,844,844,847,846,849,847,844,844,842,843,843,843,847,849,851,852,847,847,845,841,838,838,840,844,844,847,849,851,849,848,848,844,842,843,841,843,848,844,850,850,848,847,847,848,844,843,846,844,848,846,852,850,852,851,847,845,845,841,842,843,847,847,849,852,847,849,846,846,847,844,843,843,846,845,853,856,856,856,860,863,863,862,863,862,864,870,874,876,878,879,880,881,874,875,873,873,873,874,874,874,870,870,864,860,854,848,847,846,845,849,853,855,853,852,848,845,843,839,842,839,843,844,845,846,846,846,842,844,844,843,845,845,847,847,849,854,854,859,855,859,867,878,893,917,946,977,1000,1013,1007,978,936,885,828,775,732,704,696,705,725,750,771,790,805,815,827,838,846,853,863,863,865,865,866,864,863,862,864,865,864,867,869,871,873,874,875,877,875,876,872,869,869,872,872,873,878,883,886,885,883,883,878,877,878,880,883,886,884,886,888,888,889,887,884,886,888,890,892,896,901,903,902,904,905,906,904,908,908,909,914,917,923,926,928,930,932,932,933,936,937,943
