842,842,841,840,838,836,834,833,834,837,835,832,836,833,836,831,834,829,829,834,831,834,835,835,836,833,832,833,830,829,829,830,829,830,832,832,834,834,833,834,832,831,827,826,827,826,829,831,831,831,830,830,827,829,827,829,828,829,831,830,831,833,832,834,828,830,825,824,824,827,832,831,834,835,832,830,830,829,828,827,827,828,830,831,832,833,834,835,833,829,827,825,825,827,829,834,838,837,837,834,828,827,825,824,826,826,831,831,834,835,834,832,831,828,829,828,825,829,831,834,836,836,837,836,835,831,830,827,831,830,833,836,841,840,840,845,844,845,848,850,850,855,857,856,861,869,875,875,873,871,866,865,863,863,864,865,869,870,870,871,866,861,854,846,840,833,835,835,834,838,835,831,831,826,824,822,823,826,827,830,824,827,827,827,825,824,823,823,823,822,826,828,833,834,833,833,829,830,828,831,829,832,835,834,839,838,841,840,839,841,844,849,868,898,944,996,1052,1108,1170,1221,1260,1270,1242,1176,1077,956,835,741,684,663,678,710,743,763,778,787,795,804,813,825,835,837,836,835,829,828,829,825,827,827,830,833,836,833,835,833,833,831,831,828,830,829,833,834,838,835,837,836,835,834,833,832,828,830,832,834,836,839,839,839,834,834,835,835,835,834,838,840,843,841,841,843,838,840,838,838,838,841,845,847,851,847,849,854,849,849,849,852,848,855,860,863,865,868,869,870,870,870,872,870,873,877,882,886,890,888,892,892,892,897,894,896,898,904,907,912,916,919,919,920,916,915,911,911,910,909,907,908,909,906,904,898,894,886,883,879,875,872,870,871,870,870,867,866,860,857,856,851,849,850,850,853,852,852,854,852,852,848,849,847,847,847,849,851,854,854,852,850,850,850,846,848,849,848,850,852,855,854,855,857,854,850,849,849,849,852,854,853,860,860,857,859,857,854,853,849,853,854,855,857,859,857,856,856,857,855,855,853,849,851,853,859,857,856,856,858,853,854,850,848,847,849,849,849,853,850,846,849,849,847,843,844,844,843,846,846,848,850,848,846,844,842,839,837,838,838,842,843,845,843,844,843,842,841,839,837,834,837,837,838,843,843,840,840,839,835,834,834,833,835,838,841,841,840,842,840,839,837,836,834,834,837,838,839,839,841,841,839,836,834,833,832,833,834,837,837,840,840,841,839,839,837,837,834,831,833,836,837,837,839,840,841,839,836,834,835,834,834,838,840,842,840,841,839,836,834,830,834,834,835,838,837,838,840,841,841,839,837,835,833,832,833,835,837,841,838,842,842,839,836,838,836,836,837,840,844,844,845,846,845,844,846,848,850,855,860,862,867,864,867,869,871,875,871,873,870,868,865,864,863,867,865,864,861,858,854,851,846,842,841,838,837,837,837,833,833,828,826,826,822,823,824,827,828,830,830,829,828,827,824,821,821,822,825,826,830,829,831,831,829,830,825,827,827,829,831,831,833,838,839,840,840,841,845,842,850,862,891,937,984,1044,1101,1156,1212,1256,1278,1267,1213,1126,1013,894,792,722,693,704,736,773,800,813,813,810,808,816,822,831,837,840,842,838,833,827,829,828,828,832,833,835,838,841,838,836,834,833,834,829,831,834,835,838,834,836,838,837,833,833,833,833,833,835,838,840,840,839,839,840,837,835,834,832,834,836,839,843,844,845,844,844,841,841,842,839,844,848,849,850,853,856,858,858,861,860,858,860,865,866,872,875,880,882,882,884,884,884,886,891,893,897,900,904,911,910,915,914,914,914,914,916,918,922,927,929,931,929,925,924,919,917,910,908,904,902,900,897,896,890,886,878,872,867,861,860,860,858,860,859,859,858,853,851,849,847,846,843,847,844,848,851,850,851,851,847,847,842,842,842,842,845,847,849,849,852,850,846,845,844,843,839,846,845,849,849,851,852,849,850,849,846,845,841,844,846,847,849,853,851,851,850,846,844,843,842,846,848,849,851,851,850,850,846,842,844,842,841,841,839,844,844,846,845,843,840,838,836,834,835,834,834,838,839,839,838,839,837,833,832,831,829,829,831,833,835,835,834,833,829,830,828,828,825,828,828,829,831,830,831,827,826,824,827,825,826,825,827,829,831,834,832,830,829,826,827,827,827,827,827,828,827,833,832,830,830,829,825,824,822,824,828,828,835,835,834,834,834,828,829,830,826,830,832,833,834,837,838,835,832,828,827,825,823,824,826,831,833,833,831,832,827,827,824,826,826,828,829,831,833,832,832,831,831,833,828,827,827,828,827,831,833,834,832,834,830,828,828,829,827,828,831,835,834,835,837,835,834,833,830,828,830,828,832,834,834,835,836,836,834,833,831,833,831,830,832,833,834,837,837,836,835,831,831,829,830,827,832,833,842,845,849,850,852,849,853,852,854,856,855,859,863,870,874,877,875,874,870,866,864,860,860,859,860,859,860,859,858,853,847,839,835,833,828,826,828,828,823,825,821,823,821,819,813,818,816,818,823,824,822,823,820,817,815,815,815,818,820,821,822,823,822,824,823,822,822,821,820,820,824,826,832,835,835,839,839,839,844,857,888,932,977,1028,1084,1143,1197,1241,1263,1248,1191,1103,992,875,778,712,685,698,728,764,787,800,801,801,798,799,804,812,821,826,831,831,827,824,818,816,816,818,817,821,825,827,826,825,820,818,816,819,817,821,822,824,823,822,821,823,821,817,821,819,816,817,819,820,822,824,825,824,821,820,819,815,817,818,820,821,822,826,823,824,824,826,821,820,822,825,826,830,832,836,836,836,837,836,835,834,837,840,841,844,847,853,854,858,859,859,860,862,861,865,868,875,877,882,886,888,889,889,887,888,893,895,898,902,908,907,908,911,915,910,908,906,902,900,897,897,897,895,893,889,886,879,870,865,858,860,858,854,854,852,850,847,843,837,834,827,833,829,829,833,830,834,834,834,832,827,826,825,825,821,824,824,828,828,829,828,826,826,824,820,822,821,822,824,829,830,826,829,830,828,829,827,827,826,828,830,831,830,830,832,830,828,827,826,824,825,826,827,828,830,830,832,831,830,825,825,823,822,825,827,828,828,827,827,826,826,819,819,816,818,817,818,819,823,821,819,819,817,815,814,815,810,812,817,817,820,818,819,816,814,813,812,810,811,810,812,812,812,815,816,814,813,811,808,808,806,808,811,815,816,816,815,813,810,811,811,811,810,808,813,814,817,817,815,815,811,808,808,808,806,811,814,816,817,817,814,812,810,811,809,806,807,807,815,815,817,818,818,814,811,809,809,805,809,811,812,813,814,817,815,814,813,813,810,808,805,805,810,811,815,814,812,811,813,809,811,811,812,813,816,815,819,818,820,816,818,819,823,829,830,834,838,840,842,844,850,851,850,853,854,852,847,843,845,842,844,844,843,843,838,833,827,820,815,810,812,812,816,814,812,810,808,805,802,802,803,804,807,806,809,807,808,805,802,801,799,797,800,804,805,805,808,810,811,809,808,811,807,805,806,807,809,812,820,821,823,823,819,823,829,846,880,928,985,1044,1106,1172,1229,1262,1254,1202,1110,994,867,760,686,654,657,682,716,741,758,769,771,779,787,797,804,812,817,816,815,813,807,807,807,808,808,810,813,817,816,817,814,816,815,815,814,813,812,812,812,814,817,818,816,818,816,813,812,810,811,814,816,816,818,818,817,815,814,812,814,814,810,810,814,816,820,820,821,820,819,817,818,819,821,820,823,828,830,830,830,833,829,829,828,834,835,838,842,847,847,848,853,857,857,856,856,861,861,863,868,875,878,880,881,882,880,881,883,885,888,891,888,893,894,893,893,892,886,883,880,878,872,870,867,870,868,864,859,856,851,845,841,837,834,833,834,834,837,835,834,831,825,822,823,818,820,823,822,824,828,827,828,826,825,822,820,817,816,822,822,824,824,824,827,828,826,821,822,822,823,825,827,828,832,831,832,832,828,829,826,829,829,827,831,833,836,836,838,839,837,838,835,834,831,830,833,832,838,835,838,836,836,834,831,829,826,828,829,829,830,827,829,829,825,824,823,823,822,824,824,825,824,826,826,823,825,823,824,819,818,820,821,820,822,825,822,822,820,818,818,819,815,818,818,821,825,826,822,823,821,819,817,814,813,813,817,820,822,823,821,821,818,818,816,815,812,812,817,818,822,823,823,820,818,815,814,816,813,815,817,816,818,821,821,819,819,817,816,814,814,817,816,819,819,820,822,820,818,816,816,817,821,819,821,825,826,830,836,838,843,843,839,840,842,842,845,851,859,862,863,860,855,847,842,841,840,842,841,843,846,845,844,839,833,824,817,812,809,810,809,809,810,810,810,805,803,804,803,801,802,802,804,806,805,808,808,812,809,807,804,804,804,803,807,814,813,815,817,819,818,814,816,815,817,820,824,830,838,857,887,930,979,1031,1091,1154,1213,1259,1273,1250,1178,1074,947,820,718,658,649,667,703,739,764,778,787,793,796,803,811,813,811,811,811,810,812,812,814,815,818,816,817,816,816,812,813,813,816,818,818,821,820,819,816,816,814,813,814,810,812,818,820,819,821,818,816,816,815,813,814,813,817,820,823,823,825,825,824,823,821,822,820,824,821,828,832,836,835,836,835,834,836,838,839,841,845,849,856,860,861,859,865,865,870,872,875,878,881,884,889,897,897,899,901,900,902,899,904,907,910,912,915,916,916,915,910,904,899,894,891,887,882,881,879,876,869,864,858,853,847,844,840,840,839,837,837,836,834,831,829,826,825,824,822,820,824,826,825,827,824,824,823,822,819,820,821,819,821,823,823,825,825,824,824,824,822,821,825,827,830,830,829,832,831,833,831,829,826,827,822,826,829,833,834,835,834,834,835,831,833,830,829,830,832,832,833,834,833,833,833,831,829,830,828,829,829,830,833,832,832,832,832,829,828,825,826,825,826,827,829,829,830,830,829,827,822,820,821,822,821,821,820,825,826,826,824,823,820,819,821,821,820,822,824,827,823,825,823,822,818,817,815,818,817,822,821,824,823,822,823,819,817,816,817,819,817,821,820,827,823,823,821,820,818,817,818,817,818,820,820,821,818,817,816,816,815,813,817,813,813,817,821,822,823,823,823,820,820,818,818,819,819,820,823,824,822,822,823,818,813,814,815,817,818,820,822,823,823,825,823,821,818,818,816,818,817,823,824,829,826,827,828,825,824,832,835,838,844,845,847,852,852,853,854,854,853,854,855,855,851,850,852,851,847,846,845,843,843,845,841,839,834,834,832,828,826,824,821,816,816,814,809,804,809,808,812,814,813,815,812,809,808,806,807,808,808,809,812,814,812,814,814,812,811,810,812,813,815,818,822,821,823,823,823,824,822,820,824,830,836,846,868,906,953,1008,1062,1123,1180,1240,1266,1257,1206,1122,1010,887,780,707,678,686,720,756,785,801,803,804,806,811,816,821,825,826,823,820,819,819,820,824,824,827,827,826,828,826,825,820,819,818,821,827,828,829,830,827,828,825,825,824,822,820,822,828,830,833,834,834,831,828,828,829,828,827,829,832,835,838,838,839,837,835,834,833,832,836,839,837,842,847,846,847,848,847,847,850,848,852,856,861,865,867,872,876,875,878,877,879,883,883,893,899,902,905,909,912,912,914,915,917,919,922,926,931,931,932,931,931,929,925,920,916,911,904,901,897,896,891,887,878,875,867,863,859,853,853,848,847,846,849,845,842,841,838,839,836,836,834,835,839,836,841,838,835,837,835,835,834,834,833,836,836,837,839,838,840,840,836,834,834,832,834,837,840,844,845,845,844,844,839,839,836,835,840,837,841,841,842,842,843,842,838,837,837,838,836,838,838,839,844,843,845,840,840,833,833,835,834,835,838,838,841,841,838,837,834,833,832,829,829,830,832,832,835,834,834,832,830,828,825,822,823,825,828,829,833,832,830,828,827,827,824,824,822,825,825,824,827,827,826,825,822,820,822,821,822,823,823,822,826,824,825,824,821,820,817,820,820,822,822,825,825,827,826,824,820,819,818,819,815,819,821,821,819,820,823,819,816,816,814,815,811,814,819,822,823,822,825,825,824,823,822,821,821,824,823,828,826,827,826,821,825,821,822,819,821,821,824,822,825,827,828,826,824,820,818,818,819,823,825,825,829,829,828,828,826,823,823,820,820,821,821,825,827,829,831,825,825,824,824,825,824,823,825,829,828,830,828,827,827,828,828,826,828,830,829,835,839,843,849,850,847,847,846,849,852,853,860,867,871,871,869,867,863,859,857,855,850,848,849,853,856,852,851,844,835,829,825,821,820,818,822,818,819,822,824,822,821,818,819,814,815,818,818,821,821,822,824,824,824,819,820,819,819,818,823,824,826,824,825,826,827,827,826,826,828,832,838,839,844,855,867,897,939,988,1042,1097,1159,1219,1262,1273,1245,1177,1074,953,834,739,685,664,681,713,745,774,789,794,798,803,809,814,821,825,828,827,829,828,828,825,831,830,828,821,824,822,824,825,826,828,831,831,832,830,827,826,825,826,826,828,829,831,831,833,834,833,832,831,829,828,826,829,828,829,832,833,833,833,832,828,829,831,833,833,837,838,842,843,840,840,839,841,842,843,844,847,848,853,856,858,860,862,862,861,862,860,863,868,875,878,883,887,889,892,891,894,898,898,897,903,909,914,916,922,923,923,923,926,923,922,923,924,920,921,922,919,916,909,905,900,896,888,878,876,874,869,865,867,865,862,858,853,853,850,848,849,848,851,852,852,850,848,845,839,841,840,842,843,842,844,845,846,844,842,841,840,839,840,840,837,841,845,849,850,851,847,846,846,845,845,844,847,849,850,852,853,855,854,856,851,852,851,854,853,855,856,857,857,856,855,855,855,852,853,853,853,855,850,855,853,851,854,849,847,844,847,848,848,851,850,853,849,850,849,845,844,844,839,843,840,843,843,845,846,847,844,844,842,840,839,836,839,841,844,847,844,843,840,841,838,838,836,836,840,840,841,842,843,842,840,839,835,835,835,835,836,838,842,843,843,844,841,840,840,838,838,837,836,837,840,841,842,843,842,838,839,837,834,836,837,841,841,843,846,846,842,844,840,839,838,838,837,837,839,846,843,845,845,842,837,835,837,837,837,842,842,845,844,844,845,840,841,841,841,840,839,843,844,847,847,847,848,846,845,848,850,851,861,861,866,868,869,866,867,870,874,877,878,877,876,877,874,872,873,872,870,870,867,869,865,866,861,860,860,857,851,848,842,838,835,835,833,829,829,831,828,832,833,834,834,831,832,827,827,827,830,832,833,835,835,835,837,834,833,832,833,828,829,833,836,838,838,838,841,840,839,839,839,843,845,848,853,856,861,861,870,888,927,976,1030,1088,1150,1215,1266,1293,1276,1213,1113,985,857,748,683,662,683,722,762,792,808,816,818,821,824,827,833,837,840,845,844,845,845,845,841,840,839,841,842,840,840,839,844,846,849,847,846,843,841,842,840,840,841,841,844,843,845,847,845,845,842,839,840,835,839,842,845,847,848,849,845,846,847,846,845,845,845,849,852,853,856,856,857,856,854,853,853,853,856,860,865,868,873,871,874,870,872,875,877,882,887,890,893,898,903,904,907,909,912,911,913,918,919,923,930,933,938,939,938,942,939,936,935,934,935,929,928,930,927,923,915,911,906,899,894,890,885,886,881,879,881,876,871,868,862,857,857,854,854,853,855,852,855,857,852,851,849,847,848,847,848,851,852,853,854,854,850,849,851,849,851,848,850,851,853,855,856,854,856,855,852,852,851,853,850,853,854,858,860,861,860,857,857,856,857,857,855,860,859,860,862,862,861,861,855,857,854,853,855,854,856,858,857,859,855,853,853,849,848,850,850,853,855,857,856,855,850,854,852,850,847,847,848,849,852,850,855,856,852,849,844,842,845,846,845,847,848,849,850,849,849,848,845,844,844,843,843,845,848,848,851,852,851,847,845,843,845,843,840,843,843,844,844,848,848,847,846,840,838,839,841,842,843,846,847,848,846,844,842,843,840,842,841,842,847,844,848,849,849,846,846,843,838,837,841,844,848,848,847,848,845,845,844,843,841,841,842,844,846,847,847,848,848,844,847,845,845,843,842,848,848,851,853,852,850,851,848,845,842,846,847,849,850,852,853,854,851,852,849,847,844,846,845,848,850,854,855,854,852,853,851,849,850,851,854,857,866,865,870,873,876,873,877,878,874,878,880
