981,972,964,959,951,945,944,940,938,941,938,933,926,925,923,917,919,915,917,917,917,919,918,917,918,914,912,913,911,912,914,911,913,913,911,911,911,907,908,908,907,908,911,910,912,913,913,914,912,911,910,911,909,908,913,915,917,919,918,916,917,914,912,913,917,916,918,917,918,922,926,924,927,923,918,918,917,913,916,920,920,923,925,927,923,923,920,919,916,917,919,919,920,921,919,918,919,918,918,916,912,913,911,913,915,919,919,919,919,915,913,909,906,906,908,911,915,916,915,912,914,912,907,909,907,906,905,907,910,911,913,911,912,909,909,910,908,907,907,908,910,911,912,912,912,911,909,908,905,907,910,912,910,916,917,923,924,928,929,928,929,928,931,932,936,939,944,947,946,948,939,937,931,928,930,931,933,937,939,939,937,928,925,920,914,911,907,906,908,907,906,904,901,900,897,894,893,893,893,893,897,898,902,897,897,899,894,893,891,891,892,897,895,895,898,898,900,899,897,897,897,894,894,900,900,904,903,905,906,904,904,907,907,907,910,917,929,956,997,1048,1108,1167,1228,1285,1324,1324,1288,1204,1086,958,830,739,702,708,747,791,825,848,860,870,876,881,888,892,900,902,901,901,894,891,892,891,899,900,903,903,904,902,900,898,897,895,893,896,896,902,903,904,902,901,895,895,897,894,895,896,896,899,901,902,899,897,896,895,896,894,894,896,902,904,904,907,907,904,904,905,904,902,907,911,909,915,918,921,921,922,923,918,920,922,929,931,938,942,947,949,951,952,953,955,959,960,965,969,973,978,981,984,987,988,988,988,986,986,988,987,990,989,986,985,981,973,965,960,953,949,943,943,941,941,937,933,925,919,913,909,906,905,904,903,906,906,902,905,905,898,896,892,890,889,888,892,894,894,897,897,894,895,890,888,887,887,887,889,889,892,894,894,893,893,889,890,890,889,891,891,895,895,896,897,900,900,897,894,893,893,893,896,899,900,905,902,901,899,896,898,894,893,897,895,897,898,904,903,902,903,899,898,896,891,892,888,892,896,900,897,897,896,895,890,887,884,882,882,884,891,890,889,890,887,883,878,879,881,882,883,887,887,890,885,887,882,883,882,879,878,880,880,881,884,887,886,886,883,880,876,874,873,875,877,877,882,881,881,882,880,878,878,875,875,875,877,878,882,883,882,881,879,876,875,877,876,875,877,875,878,880,883,884,882,880,876,876,878,879,880,884,885,890,894,896,896,901,899,900,898,901,902,906,910,914,917,915,912,908,903,902,900,902,898,902,902,902,903,901,898,893,886,880,877,873,871,872,872,875,872,868,868,864,862,860,859,863,865,864,865,867,868,869,863,865,864,861,859,860,860,862,869,869,867,869,870,865,866,866,863,865,866,867,872,875,875,880,881,880,881,882,885,902,930,975,1025,1079,1130,1184,1237,1279,1303,1296,1252,1182,1083,968,858,771,727,724,750,787,820,842,852,848,848,851,855,865,872,876,877,872,869,866,866,865,867,872,872,875,876,876,876,870,870,866,867,866,867,870,872,875,874,873,873,869,868,867,866,868,868,870,870,871,876,875,875,874,870,868,869,867,869,871,876,877,875,879,875,875,875,875,876,878,879,882,887,889,890,892,893,893,891,896,896,898,905,910,914,918,924,926,926,928,929,929,931,938,940,946,948,954,956,957,960,960,963,958,960,960,965,964,967,967,967,960,956,949,944,938,929,928,922,920,918,913,908,904,901,896,889,882,881,879,880,883,880,884,883,878,877,873,872,871,874,874,873,878,879,879,877,878,876,874,874,870,870,867,868,868,873,879,880,876,876,874,872,874,872,875,873,872,875,876,880,880,880,875,876,874,875,871,875,878,880,883,885,886,883,882,880,877,877,876,877,877,878,880,879,880,879,873,873,869,871,870,869,873,875,876,878,876,874,871,869,864,865,864,866,872,869,873,873,871,869,868,867,861,859,861,862,863,864,866,865,862,864,862,861,855,856,858,857,861,859,861,861,862,862,860,858,858,856,855,857,859,861,861,863,866,859,859,853,853,852,855,855,856,858,860,860,859,858,853,854,851,850,853,850,857,859,860,860,857,856,854,852,853,848,848,848,855,855,854,855,853,853,853,852,848,850,849,848,850,853,859,862,861,864,864,867,866,869,871,872,877,880,880,883,883,888,890,886,886,883,880,876,877,879,882,879,882,878,875,872,867,862,859,858,854,855,852,852,851,849,844,841,835,838,838,840,842,844,846,846,848,846,839,837,838,836,837,840,843,844,847,844,844,844,842,841,842,844,843,845,846,851,851,851,854,854,856,855,853,854,859,863,872,890,918,957,1005,1053,1102,1159,1212,1255,1274,1255,1202,1117,1013,896,793,723,690,690,718,753,780,800,809,816,821,828,836,844,848,850,851,851,847,848,849,849,850,854,856,856,851,851,850,847,847,849,853,852,856,852,851,852,849,849,848,849,847,848,849,851,855,856,860,857,854,852,852,850,852,854,854,858,858,858,857,859,857,859,857,857,857,859,859,860,860,863,870,867,867,867,867,867,869,872,873,875,881,881,888,888,891,891,896,898,899,901,905,913,917,919,922,924,925,926,927,926,929,933,939,942,947,949,949,947,945,943,940,936,934,935,931,930,930,921,920,911,906,901,898,893,887,886,884,880,879,875,875,870,865,865,864,860,862,861,863,861,865,864,859,859,859,856,857,854,853,857,859,860,863,860,860,860,856,853,854,854,856,856,859,863,864,864,864,866,861,860,861,861,859,862,866,864,869,871,867,865,865,865,866,867,867,868,870,873,874,875,874,872,870,868,866,863,864,864,866,865,867,870,868,868,869,867,867,861,864,865,863,862,869,870,869,867,864,862,860,859,860,858,861,862,866,866,863,862,860,860,857,855,857,859,858,859,862,863,863,861,861,859,858,855,855,857,859,858,860,860,859,859,855,853,854,853,853,855,856,857,859,860,860,858,860,858,858,852,852,854,856,856,859,860,859,857,858,857,854,855,853,854,857,860,860,861,861,862,863,862,859,855,854,858,858,860,863,862,867,868,866,869,867,873,874,877,879,881,885,891,894,897,897,896,892,888,883,883,883,884,884,886,885,885,880,878,873,866,861,856,853,855,853,854,852,852,849,847,842,842,841,844,846,845,851,850,848,846,846,844,843,845,841,840,844,847,851,855,852,853,851,848,847,846,846,846,849,852,857,859,863,861,860,862,864,869,886,917,963,1016,1076,1141,1203,1258,1291,1289,1240,1156,1042,914,798,718,683,687,720,759,793,810,820,818,822,826,834,843,854,859,861,860,856,852,848,848,847,848,852,855,856,857,859,856,854,850,852,849,850,849,852,852,855,857,856,856,856,855,853,851,851,850,853,856,856,856,855,854,854,853,854,852,853,856,855,860,861,860,863,861,861,860,860,860,861,862,864,867,871,871,875,875,874,876,878,877,880,881,887,890,892,898,898,902,903,905,906,906,909,912,916,924,928,931,934,935,939,939,941,941,944,945,947,951,954,952,951,949,944,941,936,930,927,922,917,915,912,908,901,896,890,888,880,878,873,871,872,871,870,873,870,871,864,862,862,862,860,858,860,863,863,865,862,860,854,856,853,855,854,852,856,857,861,860,863,862,857,859,855,856,853,859,863,861,868,869,867,867,862,864,860,863,862,864,866,867,868,870,867,867,866,866,864,865,863,864,863,868,867,868,868,868,864,862,859,859,859,863,860,863,863,863,861,863,859,856,854,854,854,854,855,856,859,859,858,857,855,853,852,851,848,849,849,852,853,853,853,853,851,848,846,847,847,847,847,849,850,851,852,852,849,846,845,845,842,845,846,848,848,850,849,849,845,842,841,842,843,841,845,845,849,848,849,849,845,842,842,842,842,843,846,844,846,851,850,849,846,846,843,844,841,842,845,844,847,848,846,847,845,842,841,842,843,843,846,846,848,849,850,848,848,844,842,841,842,841,843,845,844,848,851,847,846,845,841,842,839,839,840,845,846,846,845,846,844,843,841,840,839,841,842,840,842,843,845,848,847,846,844,840,844,846,845,846,849,848,848,849,847,843,843,842,843,842,843,846,847,851,848,848,844,846,845,843,841,847,848,847,849,851,853,852,848,847,849,847,846,844,847,848,849,854,853,851,849,848,848,847,848,850,852,854,855,858,859,857,861,864,864,869,869,873,873,878,879,882,882,885,886,884,881,879,873,874,875,876,875,877,874,875,873,870,864,864,858,853,849,846,845,846,847,845,842,838,833,834,833,833,835,839,839,839,841,839,838,835,836,835,836,837,838,839,841,843,844,844,841,839,839,839,838,838,843,845,847,850,851,852,852,852,851,855,859,872,896,934,979,1028,1078,1128,1179,1227,1259,1265,1239,1174,1084,975,866,778,719,703,723,759,795,819,830,830,825,826,828,835,843,847,844,843,842,839,838,837,838,842,843,847,846,845,846,843,842,843,842,844,843,846,846,845,846,846,847,844,841,838,839,844,844,845,845,847,844,848,847,844,845,845,842,846,842,844,845,844,848,847,850,847,847,847,847,849,848,852,857,857,858,858,857,859,860,859,860,865,867,872,874,878,880,879,885,879,884,886,889,892,894,899,905,906,910,912,912,914,914,913,916,916,922,928,933,935,937,938,937,936,932,933,932,931,929,928,930,927,923,920,912,908,903,895,892,889,887,886,882,880,879,876,872,869,864,859,860,857,858,859,857,862,860,859,854,854,851,851,848,853,855,853,853,857,856,857,853,852,853,852,851,851,853,856,858,862,858,861,860,858,854,853,853,853,855,855,857,858,856,858,857,856,854,853,849,851,852,857,857,860,860,858,857,856,855,850,850,849,848,851,849,850,852,852,853,847,848,845,845,844,845,846,846,847,847,846,844,842,837,834,838,835,839,839,840,843,840,840,842,839,837,834,832,832,834,838,840,842,840,838,838,835,834,832,831,831,833,833,838,839,839,838,839,834,832,830,829,832,833,835,836,838,837,837,834,831,833,831,829,830,828,830,832,832,830,833,837,835,833,830,831,826,831,833,835,836,837,838,837,831,832,831,831,828,832,834,833,837,836,835,835,831,831,830,831,831,833,835,836,838,839,837,833,834,835,835,833,834,836,835,839,841,842,842,841,835,836,832,834,832,834,835,836,837,840,842,841,840,839,838,839,838,837,837,841,840,841,841,840,841,838,836,836,836,836,839,840,843,842,843,840,838,836,834,834,835,839,839,843,842,845,845,842,839,836,838,838,839,838,840,842,846,846,838,839,835,835,836,835,838,838,839,840,845,845,846,846,843,842,841,839,840,841,848,856,859,862,866,866,865,864,864,866,868,874,878,880,883,875,874,872,867,862,860,860,858,861,863,861,861,855,848,847,841,835,837,835,832,831,834,830,833,833,834,831,829,831,829,825,825,825,828,831,832,832,833,834,830,829,829,827,830,830,834,839,838,837,836,836,835,835,834,837,838,841,843,846,852,854,861,880,914,956,1008,1056,1111,1167,1220,1256,1264,1231,1163,1065,955,843,749,691,667,678,713,743,770,786,789,795,797,803,809,817,827,833,837,835,839,839,837,835,834,832,835,833,832,833,838,839,842,843,842,835,837,835,834,833,835,833,835,837,835,836,836,835,831,833,835,836,833,837,837,840,841,841,841,839,837,836,837,833,837,838,840,839,844,844,844,847,843,844,846,845,849,849,851,857,857,858,859,859,861,859,860,862,865,869,873,878,884,886,889,890,890,889,892,892,893,895,899,905,907,911,911,916,914,913,916,913,914,916,917,920,920,920,919,916,912,903,901,895,892,892,889,886,887,884,883,879,874,867,864,859,860,858,859,861,861,860,858,858,854,848,850,850,851,851,853,849,851,854,852,852,849,846,847,850,846,847,850,851,853,854,855,855,851,852,852,850,851,854,856,858,862,862,863,861,861,860,858,858,858,858,860,863,865,865,865,864,862,861,860,859,856,860,858,859,862,866,863,863,861,856,857,855,855,854,856,857,858,858,856,854,852,853,850,850,844,850,848,848,855,854,854,850,850,846,845,845,843,848,851,852,853,852,852,850,848,848,847,846,846,845,846,849,850,850,850,849,847,846,843,842,843,843,845,848,852,853,852,851,847,844,843,841,840,844,846,844,850,850,850,851,847,843,843,841,840,842,846,846,846,846,846,845,844,843,842,841,838,841,846,847,850,846,850,849,844,843,844,845,843,841,842,847,849,847,847,846,842,842,841,840,841,845,844,845,844,851,850,850,850,847,845,841,845,845,848,846,848,852,851,852,848,846,846,843,842,847,847,851,853,852,850,849,845,842,841,843,843,844,847,848,850,850,849,851,849,847,846,845,843,846,847,850,850,851,850,852,852,847,847,842,844,845,849,851,852,856,854,854,853,847,848,846,848,852,855,857,861,865,869,872,871,872,871,871,872,876,881,885,892,887,887,889,882,879,875,870,872,870,870,871,870,872,870,865,861,853,847,842,840,838,838,839,842,840,838,835,837,834,832,833,831,834,837,836,838,840,839,841,838,834,835,834,833,830,835,837,842,842,844,841,843,841,841,840,844,843,849,847,852,857,860,866,876,899,934,980,1028,1080,1133,1188,1238,1270,1279,1252,1190,1102,994,884,788,727,702,709,740,779,805,822,823,819,817,816,821,827,836,842,848,846,844,842,841,839,837,836,837,837,838,841,844,842,845,844,840,838,837,836,837,838,840,842,844,844,844,841,839,836,836,835,836,840,841,841,845,845,845,846,844,842,843,841,841,842,844,846,850,846,847,850,848,847,847,847,848,851,852,856,858,862,862,862,863,862,864,864,865,865,871,876,880,881,883,886,886,888,891,892,894,897,900,906,909,913,914,918,917,917,919,921,920,919,926,928,933,934,934,932,927,924,920,915,914,910,910,908,906,904,896,892,885,882,879,873,872,866,866,863,865,864,862,859,859,856,855,850,851,848,848,852,853,854,853,854,852,848,847,846,847,847,846,849,852,851,853,854,851,851,847,848,849,850,852,853,855,858,858,857,853,850,848,849,849,849,853,859,859,859,861,859,858,858,857,855,854,854,855,856,858,858,856,854,854,852,852,850,847,850,849,853,852,853,853,853,851,848,846,843,843,843,843,845,846,848,846,848,845,843,840,838,841,839,840,842,844,846,845,844,843,836,836,835,838,836,839,844,844,842,845,844,844,842,837,837,836,837,837,839,841,843,844,841,841,836,834,831,834,837,837,840,841,843,841,840,839,838,837,835,836,835,834,838,837,840,839,843,840,837,835,834,833,832,834,837,838,840,841,840,840,839,833,833,834,833,833,839,839,838,840,841,840,837,834,833,835,833,833,834,840,841,840,838,839,838,836,835,836,831,832,837,839,843,842,840,838,837,835,834,831,833,833,836,838,841,839,839,838,837,837,837,835,835,837,839,836,843,841,840,839,839,834,832,833,835,836,837,841,842,840,842,839,837,836,835,835,832,835,838,838,842,839,840,840,837,838,836,838,838,839,840,842,844,841,840,839,837,835,837,838,844,844,847,852,856,859,861,860,859,859,857,860,864,872,878,883,884,884,880,877,870,867,861,862,864,865,864,865,862,863,861,853,843,839,831,827,828,828,828,827,831,827,825,825,823,820,820,819,819,822,823,826,825,826,826,822,823,821,818,817,821,823,824,824,829,827,830,828,828,826,828,829,828,831,833,835,839,842,845,846,850,866,893,934,983,1034,1085,1142,1197,1236,1247,1221,1155,1057,944,831,741,695,685,708,740,773,793,804,806,807,809,815,820,827,830,832,833,832,832,828,827,828,826,827,827,829,829,832,833,834,837,834,834,829,826,826,828,829,832,833,836,836,832,833,831,830,829,831,830,833,829,837,838,837,837,837,835,837,832,835,834,833,842,840,842,841,843,839,841,840,842,843,842,845,845,850,854,855,858,858,858,855,856,859,859,860,865,873,877,877,880,881,882,884,886,889,892,894,899,902,906,907,912,911,911,911,911,912,913,915,916,917,920,917,917,913,903,906,900,891,888,886,885,881,879,880,874,872,868,863,859,855,852,851,850,850,849,849,844,845,842,839,837,836,837,838,837,841,844,844,844,842,838,837,836,835,837,837,839,840,845,846,844,844,843,843,844,842,843,845,847,849,850,849,850,845,847,844,843,843,844,846,847,848,849,850,851,852,850,848,847,847,844,848,847,850,849,850,849,846,843,841,841,840,840,840,840,842
