979,978,977,975,978,978,977,978,979,982,981,982,981,983,985,984,980,979,974,973,969,967,964,964,967,971,971,969,966,963,968,973,976,981,983,982,979,982,984,988,993,996,993,993,995,993,989,992,993,994,994,996,1000,1000,1002,1005,1003,1003,1003,1006,1008,1010,1019,1023,1018,1014,1003,996,993,986,980,983,986,995,1003,1015,1025,1033,1044,1051,1054,1063,1071,1093,1124,1153,1171,1174,1163,1146,1127,1104,1074,1054,1039,1029,1021,1019,1019,1016,1014,1014,1015,1014,1016,1015,1015,1018,1018,1022,1023,1026,1027,1019,1013,1011,1011,1010,1009,1009,1008,1010,1013,1020,1020,1020,1019,1022,1023,1024,1023,1016,1018,1022,1025,1027,1029,1027,1026,1026,1029,1032,1030,1029,1029,1033,1035,1032,1031,1027,1023,1022,1027,1034,1038,1041,1040,1037,1035,1033,1029,1023,1025,1030,1035,1040,1041,1041,1039,1037,1036,1035,1033,1032,1033,1036,1039,1039,1041,1037,1034,1037,1038,1036,1035,1028,1028,1029,1031,1029,1026,1023,1025,1027,1028,1029,1027,1022,1014,1013,1015,1016,1012,1006,997,995,992,991,992,989,993,995,995,990,985,980,979,984,985,986,983,980,980,981,982,980,978,977,974,979,985,988,985,987,986,985,982,978,972,966,963,967,972,976,973,976,976,972,969,967,965,966,966,967,971,974,974,969,970,967,969,970,966,970,975,982,984,985,977,968,963,963,963,964,967,968,973,977,982,980,975,971,970,972,976,975,973,969,966,973,975,977,979,978,975,971,971,967,968,964,966,968,972,971,974,974,975,974,981,978,980,977,977,979,984,983,987,981,981,979,979,979,977,978,978,976,974,969,968,969,972,976,980,975,970,965,964,961,960,956,953,950,950,957,960,962,959,954,953,953,957,960,963,964,965,965,964,961,955,953,959,961,972,977,978,975,971,971,974,971,971,970,973,979,982,986,987,983,981,981,980,980,976,976,978,977,981,979,985,984,981,979,978,979,975,966,952,942,937,936,944,952,959,970,977,984,993,998,1000,1010,1025,1048,1071,1097,1118,1127,1128,1120,1104,1080,1055,1036,1024,1016,1007,998,994,988,987,984,982,983,986,991,996,995,993,991,988,993,994,994,993,992,990,993,996,997,995,990,988,990,993,999,1000,999,996,998,998,996,993,990,994,996,1002,1007,1008,1007,1006,1010,1013,1012,1011,1009,1008,1012,1015,1016,1016,1011,1009,1013,1015,1016,1017,1015,1013,1013,1016,1012,1011,1011,1015,1018,1017,1021,1023,1019,1021,1023,1027,1031,1034,1032,1036,1040,1043,1041,1036,1033,1029,1029,1029,1027,1021,1021,1023,1026,1029,1028,1025,1014,1009,1009,1014,1012,1011,1008,1007,1010,1012,1010,1006,1003,997,993,994,992,994,991,994,993,992,990,987,985,981,986,989,989,986,984,980,979,980,986,982,981,980,981,985,983,981,978,978,981,982,982,986,979,974,970,967,963,962,962,962,967,970,973,969,969,967,968,971,971,970,971,971,978,978,975,968,969,967,969,969,972,969,967,966,970,972,973,974,973,974,974,978,980,981,982,984,987,993,990,992,985,981,983,984,990,990,988,986,986,986,979,973,974,977,982,988,991,996,997,996,995,992,992,993,986,991,994,997,1001,997,993,987,991,992,993,991,993,994,994,993,993,989,987,983,984,988,983,981,974,973,973,973,973,972,969,967,971,972,978,981,983,983,986,991,994,995,995,995,1000,1005,1008,1010,1004,999,999,1004,1005,1009,1010,1012,1019,1022,1025,1021,1018,1018,1019,1025,1025,1023,1018,1019,1019,1017,1018,1018,1018,1018,1017,1015,1011,1004,1006,1011,1025,1046,1061,1066,1064,1058,1056,1061,1069,1088,1115,1151,1178,1186,1187,1178,1161,1141,1108,1077,1055,1040,1030,1025,1023,1023,1023,1027,1024,1026,1032,1033,1035,1034,1029,1024,1020,1022,1026,1029,1032,1033,1034,1035,1035,1029,1027,1023,1026,1031,1035,1037,1039,1043,1044,1050,1054,1046,1039,1031,1032,1034,1033,1034,1030,1026,1026,1033,1035,1036,1037,1038,1041,1043,1046,1043,1043,1043,1042,1044,1049,1050,1052,1055,1055,1056,1055,1056,1058,1060,1062,1061,1061,1061,1061,1057,1056,1056,1055,1059,1054,1051,1054,1055,1055,1052,1051,1049,1049,1052,1057,1057,1056,1056,1055,1055,1052,1052,1049,1047,1048,1045,1045,1039,1032,1030,1032,1030,1036,1034,1033,1028,1027,1022,1021,1015,1011,1008,1011,1011,1009,1005,999,1002,1006,1008,1008,1006,1002,1002,999,1004,1006,1002,999,995,995,996,995,995,994,993,994,994,991,991,989,991,995,998,996,993,989,986,983,983,981,984,987,991,992,990,981,977,973,972,977,982,982,984,980,982,986,984,985,985,978,977,976,978,982,982,981,980,981,982,982,978,977,975,980,985,988,987,983,979,978,981,978,980,981,979,975,975,976,974,973,973,975,979,986,987,989,988,981,977,977,978,979,979,978,981,984,984,984,979,979,979,982,980,976,969,969,970,968,965,962,962,959,962,964,967,966,963,961,959,960,961,958,958,960,966,968,966,963,965,969,973,977,976,977,979,984,984,979,978,978,975,979,979,984,987,985,988,988,989,990,988,990,989,993,992,993,991,986,983,983,983,979,969,959,949,951,957,967,975,980,986,993,1001,1010,1018,1032,1056,1100,1139,1163,1164,1156,1141,1122,1095,1070,1048,1028,1010,1002,999,995,994,996,999,1004,1008,1009,1004,998,991,992,1000,1009,1011,1016,1014,1014,1014,1012,1006,1002,997,1000,1007,1013,1012,1009,1004,1004,1005,1006,1008,1007,1010,1012,1015,1012,1008,1005,1003,1010,1014,1018,1020,1018,1021,1023,1027,1026,1024,1021,1020,1021,1024,1023,1024,1021,1020,1020,1024,1024,1022,1023,1024,1028,1036,1037,1037,1036,1027,1027,1031,1033,1033,1035,1034,1041,1044,1043,1037,1035,1035,1039,1043,1044,1040,1037,1031,1031,1031,1032,1032,1030,1025,1026,1025,1023,1018,1014,1010,1007,1006,1006,1004,1004,1008,1011,1011,1010,1005,998,986,986,988,989,991,993,986,983,978,978,982,984,986,989,991,993,991,987,985,984,983,980,978,985,985,982,983,977,977,974,974,974,976,975,975,975,970,969,969,972,968,971,971,976,975,976,972,970,968,972,976,976,976,974,971,970,972,974,975,975,977,980,980,979,979,977,973,976,978,977,977,977,979,980,981,982,979,976,972,975,977,979,980,981,981,981,982,983,982,981,985,993,996,1000,997,994,988,986,984,985,984,982,982,983,986,982,979,975,973,974,975,977,977,974,970,964,962,963,963,964,965,968,973,977,976,974,966,967,971,977,982,981,984,986,987,985,987,988,993,999,1004,1006,1001,992,985,985,991,994,995,995,994,998,998,999,999,999,996,991,981,972,969,970,980,989,1000,1011,1019,1022,1028,1037,1054,1087,1120,1153,1158,1150,1134,1111,1082,1053,1031,1021,1014,1014,1013,1013,1014,1014,1016,1020,1020,1015,1012,1008,1008,1010,1012,1015,1016,1016,1017,1018,1017,1016,1016,1020,1023,1023,1020,1022,1023,1027,1031,1034,1035,1029,1031,1033,1034,1034,1034,1034,1038,1034,1036,1038,1038,1041,1042,1045,1048,1049,1046,1047,1043,1044,1050,1052,1052,1053,1050,1050,1052,1049,1048,1046,1043,1045,1051,1055,1057,1055,1058,1058,1061,1065,1067,1068,1066,1063,1060,1059,1055,1052,1052,1056,1059,1063,1066,1063,1055,1045,1045,1042,1037,1031,1027,1027,1029,1025,1026,1024,1022,1025,1029,1028,1025,1019,1015,1013,1009,1009,1010,1005,1003,1005,1007,1009,1009,1009,1006,1008,1008,1007,1004,1004,999,1004,1005,1009,1013,1013,1006,1005,1004,998,994,992,990,998,997,998,994,988,983,984,987,995,999,998,991,988,986,986,987,987,987,990,992,993,994,993,991,998,999,995,988,987,985,988,991,995,996,995,994,994,997,999,1000,994,994,992,991,990,990,990,995,1000,1005,1006,1004,994,988,987,992,995,997,998,998,998,996,995,991,986,981,986,992,994,990,984,978,974,973,976,977,975,973,975,972,969,969,967,971,973,982,983,975,965,959,958,963,972,975,974,973,977,980,983,983,977,976,978,987,990,987,983,981,988,992,993,992,989,983,989,995,995,994,991,988,987,982,981,972,958,951,954,960,974,983,994,1001,1013,1023,1035,1051,1079,1114,1145,1162,1164,1150,1132,1104,1069,1038,1018,1005,1001,998,997,1000,997,994,990,987,989,994,999,998,995,989,988,992,994,992,994,994,999,1001,1001,997,990,995,1004,1008,1004,1002,1000,995,996,999,1004,1007,1009,1009,1008,1005,1005,1006,1006,1004,1007,1010,1010,1008,1010,1009,1011,1014,1015,1013,1011,1012,1014,1016,1023,1022,1020,1019,1023,1025,1025,1024,1022,1022,1021,1020,1021,1023,1022,1022,1020,1017,1014,1013,1012,1010,1010,1011,1011,1009,1002,1001,1004,1004,1003,997,988,981,977,979,979,983,984,986,988,984,981,975,971,969,973,977,978,976,972,968,969,972,973,973,973,973,973,972,975,970,965,963,964,968,969,964,958,959,958,962,964,964,964,962,960,959,959,959,960,958,957,961,965,965,964,959,964,966,970,969,965,965,965,963,962,959,957,954,956,960,966,967,966,964,964,964,966,962,960,959,960,965,967,967,965,968,964,969,971,977,979,979,982,980,983,979,977,974,972,969,966,963,957,955,959,965,967,968,965,962,957,955,953,956,955,952,954,956,959,958,953,952,948,949,952,955,952,951,955,957,957,959,965,964,969,974,973,967,962,961,959,965,969,971,971,971,977,979,980,981,978,977,978,982,985,988,990,985,979,972,969,963,953,941,937,943,956,966,974,978,983,990,998,1003,1016,1036,1068,1107,1129,1128,1109,1087,1058,1036,1018,1009,1001,993,993,994,993,990,987,987,994,999,1006,1006,999,988,984,982,982,983,982,980,987,988,996,996,996,993,992,996,1000,1001,1001,1000,999,999,1003,1000,999,1000,1003,1006,1009,1012,1013,1008,1009,1010,1009,1012,1015,1013,1015,1018,1019,1018,1015,1017,1020,1025,1030,1032,1032,1030,1029,1029,1031,1034,1032,1031,1032,1035,1034,1037,1032,1030,1035,1036,1038,1041,1038,1038,1039,1042,1042,1040,1039,1036,1037,1036,1042,1039,1040,1038,1039,1036,1035,1030,1024,1021,1023,1024,1023,1021,1016,1011,1010,1007,1003,1001,1002,1003,1005,1008,1009,1007,1000,998,1000,1001,1005,1004,1003,999,997,998,992,989,990,990,992,995,999,998,991,988,991,993,998,1000,996,994,996,997,998,997,992,989,986,988,988,987,983,981,984,988,990,991,994,994,991,992,990,986,986,984,989,994,996,995,992,989,991,992,995,996,993,992,996,997,1000,1002,1001,997,1001,1005,1008,1008,1003,999,995,992,996,996,995,1001,1002,1007,1013,1014,1012,1008,1007,1005,1006,1009,1007,1006,1005,1004,1004,1004,1002,1000,1002,1004,1004,1004,1001,996,992,993,990,990,991,990,994,996,994,992,985,981,985,988,998,1004,1002,994,996,995,997,997,997,995,999,1004,1006,1003,999,999,1000,1007,1010,1013,1012,1011,1011,1014,1013,1013,1012,1010,1014,1016,1016,1021,1019,1019,1020,1018,1020,1021,1017,1010,1007,998,1000,1006,1016,1028,1038,1049,1054,1057,1060,1066,1081,1107,1143,1172,1180,1172,1158,1147,1132,1109,1082,1057,1045,1035,1031,1026,1020,1015,1015,1019,1022,1021,1016,1013,1013,1014,1017,1017,1017,1018,1019,1023,1024,1022,1018,1019,1019,1017,1017,1016,1020,1022,1026,1028,1033,1029,1024,1018,1016,1020,1023,1025,1024,1023,1022,1024,1025,1021,1016,1018,1019,1027,1032,1033,1032,1029,1030,1034,1035,1036,1031,1035,1037,1040,1042,1042,1041,1041,1044,1046,1045,1043,1040,1038,1036,1036,1041,1042,1041,1039,1042,1045,1050,1050,1050,1044,1046,1044,1047,1048,1047,1044,1043,1044,1047,1045,1043,1038,1032,1029,1029,1032,1028,1023,1023,1022,1021,1020,1018,1012,1011,1011,1011,1008,1004,1004,1005,1008,1010,1011,1008,1004,999,998,1001,1000,1000,998,1001,1003,1002,996,992,989,988,988,993,991,989,983,981,982,983,979,975,973,973,976,978,982,983,984,982,983,982,980,982,981,981,985,989,987,984,979,972,969,969,972,970,965,968,972,974,975,976,970,972,973,977,973,973,971,974,973,974,974,975,976,977,979,979,979,975,971,971,968,967,968,967,965,969,971,974,974,973,977,980,982,982,978,975,970,971,974,978,984,988,988,988,988,987,988,983,982,984,985,988,992,989,993,990,986,979,973,970,966,973,974,979,979,978,972,970,966,966,968,968,968,968,969,965,960,955,949,953,956,960,963,964,964,964,967,968,973,972,970,969,972,976,974,972,969,969,975,978,981,988,984,987,986,988,988,986,982,985,987,991,988,986,985,987,989,987,982,974,970,971,966,960,955,951,949,960,969,981,990,1002,1009,1025,1042,1062,1086,1113,1132,1146,1150,1147,1133,1111,1083,1057,1039,1028,1014,1004,997,997,995,999,998,998,996,997,1000,1002,1000,997,990,990,989,992,993,992,989,989,992,993,994,996,995,997,1000,1004,1002,996,997,997,1002,1003,1004,1002,1000,999,1001,1005,1006,1007,1002,1005,1005,1011,1012,1012,1011,1012,1013,1014,1011,1009,1008,1007,1010,1012,1013,1014,1014,1021,1026,1030,1033,1033,1031,1029,1029,1029,1024,1022,1019,1020,1023,1025,1025,1023,1023,1027,1027,1030,1030,1034,1036,1035,1036,1040,1037,1030,1022,1019,1019,1022,1023,1020,1016,1015,1015,1012,1004,1000,993,993,991,994,994,992,986,986,985,985,984,985,985,988,990,993,988,986,977,977,979,983,982,978,978,978,980,983,981,975,968,967,971,975,978,974,970,969,971,970,967,962,960,960,960,966,966,964,963,960,964,969,969,966,962,962,961,966,966,966,965,965,965,968,964,960,958,956,960,961,958,956,952,956,962,966,967,963,961,962,966,967,963,962,958,962,964,970,971,968,965,964,962,966,965,967,965,970,967,969,972,973,969,971,975,976,979,978,972,967,965,966,967,970,973,977,980,980,975,966,959,955,956,954,950,949,948,951,956,956,951,947,943,940,941,946,947,947,947,952,956,951,950,947,949,954,962,970,976,976,971,967,964,964,963,963,965,966,968,973,977,976,976,978,980,985,981,981,980,979,978,979,975,970,967,965,967,968,966,961,956,954,959,964,969,974,975,979,983,988,992,1000,1008,1025,1050,1086,1109,1124,1127,1121,1111,1096,1072,1050,1028,1014,999,993,990,988,992,997,1000,1000,998,990,983,979,979,982,988,993,999,1003,1007,1006,1003,1003,1002,1004,1004,1003,998,993,990,992,995,1003,1006,1010,1015,1017,1012,1011,1013,1013,1017,1015,1011,1012,1009,1006,1007,1011,1012,1013,1009,1010,1009,1010,1014,1021,1024,1023,1025,1024,1024,1022,1022,1016,1019,1023,1030,1035,1034,1036,1034,1038,1041,1044,1041,1037,1034,1038,1038,1046,1049,1047,1046,1042,1045,1047,1049,1043,1038,1032,1033,1045,1048,1039,1020,1002,997,997,995,1000,1005,1010,1017,1020,1014,1007,1000,994,985,985,987,988,989,994,999,999,996,991,983,980,985,988,990,989,985,982,983,986,989,995,994,996,995,996,989,978,970,969,975,983,989,987,980,977,982,984,981,976,971,968,972,974,976,981,979,975,973,974,971,971,967,961,960,965,972,978,982,983,983,985,985,984,975,972,971,969,971,970,969,972,974,976,972,970,974,977,979,978,978,975,979,979,981,987,990,986,980,979,986,995,1002,999,986,975,971,977,981,979,977,977,980,983,982,977,972,968,967,974,974,973,970,968,962,959,953,954,953,955,957,955,959,963,963,963,964,967,974,979,981,979,984,987,987,980,968,961,965,978,986,985,983,978,979,975,977,978,985,988,994,1001,1004,998,994,984,980,982,984,985,984,979,979,973,973,972,976,983,991,999,1001,1010,1021,1027,1042,1055,1075,1106,1130,1136,1131,1121,1104,1075,1048,1028,1015,1006,1002,998,993,990,993,993,990,982,977,976,981,991,998,1000,1002,997,998,1000,1000,1001,1002,1001,1005,1005,999,997,993,990,993,1002,1004,1002,1001,1004,999,1004,1008,1010,1011,1011,1010,1010,1009,1012,1017,1018,1017,1012,1008,1000,999,1004,1012,1020,1020,1019,1017,1012,1010,1012,1008,1007,1009,1012,1021,1029,1031,1028,1024,1020,1022,1025,1029,1029,1024,1027,1033,1034,1026,1015,1010,1010,1019,1032,1037,1038,1032,1028,1024,1024,1026,1024,1016,1005,1004,1002,999,1001,1002,1005,1001,1007,1008,1010,1008,1001,998,1001,998,992,986,980,980,987,994,993,988,983,980,982,986,987,976,966,958,961,966,973,970,968,964,966,963,966,969,975,980,990,995,1002,994,971,955,956,961,966,966,968,970,979,981,984,977,965,963,961,956,957,957,960,966,970,967,964,966,972,977,976,963,953,949,952,962,969,975,975,963,957,951,949,945,951,956,964,970,970,969,965,963,961,962,960,953,953,951,954,966,976,981,976,968,959,958,960,964,968,964,963,963,969,969,976,977,973,972,967,964,965,966,970,978,988,992,987,981,973,969,966,957,946,941,944,954,961,960,958,955,954,954,951,948,945,941,942,941,946,945,948,948,945,940,938,934,933,933,942,949,956,958,962,959,952,950,951,962,976,983,979,974,965,960,965,974,973,972,969,963,962,959,962,966,970,963,959,957,961,971,975,970,958,949,938,940,952,961,962,953,943,943,951,963,975,985,1006,1035,1073,1102,1124,1129,1122,1106,1087,1059,1035,1019,1010,1002,995,989,987,982,979,981,983,982,983,987,989,991,997,995,987,975,968,967,977,986,992,988,978,974,978,981,984,988,993,1003,1012,1008,999,992,992,998,999,993,988,987,991,996,1001,999,999,997,997,997,999,996,999,1006,1007,1009,1015,1017,1019,1017,1017,1019,1021,1020,1020,1014,1010,1014,1021,1025,1025,1026,1023,1020,1018,1016,1016,1017,1022,1030,1037,1040,1041,1036,1029,1023,1027,1036,1042,1043,1034,1027,1016,1011,1013,1019,1022,1027,1026,1018,1005,995,990,996,998,993,984,983,980,986,995,992,987,984,985,994,999,994,983,977,974,979,988,997,1002,995,987,982,979,978,985,989,987,987,979,972,973,976,983,984,982,972,960,956,957,967,974,970,968
