912,917,926,930,930,932,931,932,935,938,940,943,943,944,946,944,940,935,930,921,909,903,891,884,876,866,861,851,843,836,828,821,815,810,806,806,805,800,803,798,797,797,792,792,790,791,791,791,797,799,803,800,801,800,795,797,797,798,796,799,802,803,807,809,807,806,803,799,800,801,799,798,800,800,805,806,806,804,802,800,798,797,796,798,795,794,793,793,793,791,791,790,786,789,788,792,791,791,793,794,791,787,787,785,783,786,785,788,787,790,788,785,785,784,785,782,783,780,781,783,784,786,790,788,787,786,784,777,782,784,788,791,796,802,805,805,804,803,804,801,803,801,805,808,813,817,823,826,827,824,819,816,813,812,813,813,814,814,810,809,804,799,793,788,785,781,777,773,770,771,772,775,781,783,779,777,779,777,779,780,776,775,778,782,792,808,830,861,901,954,1025,1103,1190,1286,1375,1445,1483,1487,1442,1346,1218,1090,962,834,706,689,744,800,845,862,860,843,827,810,798,794,794,799,799,805,806,804,802,800,802,801,804,807,808,813,817,817,816,816,817,817,818,818,820,823,825,829,833,837,832,836,838,840,842,847,851,855,859,863,872,871,874,875,880,876,880,884,890,898,905,914,924,934,938,941,942,941,944,945,947,953,956,956,960,963,960,960,960,957,955,949,944,939,931,925,917,909,899,889,879,870,864,853,848,845,842,839,838,831,826,825,819,818,814,813,809,810,810,814,818,816,816,815,812,810,809,812,812,814,816,818,819,821,820,816,817,817,817,814,816,820,825,825,826,828,828,826,824,821,818,815,815,813,814,816,820,819,818,815,815,815,815,811,805,807,806,811,813,813,808,812,811,807,804,802,802,802,805,806,807,806,807,807,804,800,799,797,798,801,805,805,807,808,805,803,801,796,795,798,797,797,797,801,807,809,815,817,818,819,822,821,820,825,824,828,830,828,827,827,830,829,837,838,838,842,842,840,843,841,836,834,829,826,822,818,810,805,800,800,800,796,795,789,787,785,786,784,787,790,791,792,796,798,796,796,790,789,789,786,792,806,831,869,919,988,1060,1144,1229,1315,1396,1457,1498,1519,1516,1493,1442,1343,1215,1087,959,831,703,701,754,812,854,871,864,848,825,806,793,791,793,796,798,802,805,803,805,805,799,798,798,797,797,797,796,799,803,807,811,815,816,820,820,818,820,819,821,823,827,828,832,836,835,839,841,842,844,846,849,853,857,862,870,875,875,880,883,885,889,893,895,904,911,915,923,930,934,938,942,944,947,947,950,953,959,961,965,965,966,961,954,954,953,945,942,937,932,928,924,916,901,892,879,867,859,849,844,837,835,830,829,824,823,819,815,811,808,803,800,801,800,801,808,807,807,805,803,804,804,804,805,806,808,807,811,813,813,813,812,809,807,805,807,809,811,816,818,821,821,820,815,815,812,812,808,810,816,818,819,822,820,818,816,817,812,810,808,810,810,811,813,813,809,810,806,804,802,798,801,802,805,808,807,806,808,804,803,804,801,798,797,799,802,802,805,805,806,802,802,799,800,798,800,796,798,799,799,800,800,802,804,807,810,815,817,820,825,824,824,826,828,829,830,834,839,842,847,848,848,845,847,844,842,839,834,831,824,822,815,815,812,813,814,812,807,801,791,793,790,790,789,790,790,790,792,794,798,797,796,795,793,792,793,798,808,823,850,892,947,1011,1085,1157,1232,1310,1376,1439,1485,1506,1495,1445,1335,1207,1079,951,823,695,713,784,844,879,887,873,848,826,807,801,800,802,805,805,806,807,808,809,810,812,811,814,812,814,816,818,823,825,827,826,825,818,820,821,825,827,829,834,839,841,846,848,848,853,854,856,857,857,860,867,873,879,888,894,901,903,907,912,913,918,926,932,943,950,958,963,967,969,975,974,975,972,972,974,974,975,977,977,975,969,960,951,942,932,923,912,904,898,889,883,877,867,858,849,842,835,834,833,831,829,830,827,819,818,814,809,806,804,803,809,813,814,819,819,818,815,813,810,809,809,813,815,815,817,817,819,819,821,820,821,820,819,818,816,816,820,823,825,821,824,821,816,815,813,813,817,817,819,821,822,823,823,816,809,802,799,800,800,802,806,811,812,811,808,805,801,799,797,797,796,798,799,803,805,805,803,802,800,801,801,799,795,799,799,800,802,801,798,798,795,791,790,794,794,796,800,805,807,817,817,820,820,821,818,818,817,821,821,825,832,838,839,838,835,830,829,825,828,825,827,824,823,819,817,811,802,797,792,786,780,779,779,779,781,779,783,784,783,781,784,779,780,782,784,786,788,788,787,792,801,824,861,910,980,1052,1132,1209,1292,1365,1431,1471,1489,1473,1426,1327,1199,1071,943,815,687,703,761,817,851,857,846,824,804,790,783,782,788,789,789,790,790,788,785,787,787,789,794,798,800,801,798,797,795,796,800,804,804,804,806,808,811,815,814,817,814,816,819,823,826,832,839,842,846,850,852,853,851,856,860,858,866,873,880,889,893,904,904,911,914,916,915,918,926,933,935,945,951,956,955,956,952,951,948,944,939,936,931,924,916,904,895,882,873,863,854,847,840,834,826,820,813,808,803,795,791,787,785,784,785,782,782,783,787,787,792,789,782,780,773,773,775,777,781,785,787,787,787,787,786,783,782,781,781,782,786,786,787,788,789,787,784,783,784,783,782,782,785,783,785,783,783,783,783,785,781,778,777,772,771,769,769,769,772,771,771,764,764,761,761,762,768,771,774,771,769,762,760,757,759,759,759,760,761,765,767,768,767,765,763,760,759,760,758,758,763,763,767,769,772,773,775,771,771,771,771,772,779,784,788,787,786,784,784,785,789,789,790,790,792,792,792,794,793,793,790,786,786,785,783,782,779,777,774,769,763,760,753,748,752,750,753,756,760,755,754,751,751,748,750,751,752,754,756,758,762,769,787,808,843,888,944,1011,1082,1163,1249,1333,1401,1452,1470,1457,1400,1292,1164,1036,908,780,652,652,700,751,794,814,817,807,797,786,775,770,769,770,772,774,780,779,778,775,772,771,774,775,777,781,782,790,795,799,797,793,793,790,791,794,797,800,803,806,805,806,806,811,811,813,814,812,816,820,830,833,842,847,846,852,849,850,855,858,866,877,888,899,904,908,910,911,908,910,914,919,924,928,932,933,938,936,943,945,945,944,940,934,928,928,925,922,917,908,903,892,882,877,868,861,854,849,846,844,838,830,820,813,805,799,796,792,793,794,796,798,803,804,804,803,801,797,794,797,798,799,801,805,807,809,809,812,811,808,808,805,806,807,807,806,807,810,810,813,814,812,814,813,811,812,813,814,816,816,815,812,809,805,804,799,800,804,808,813,816,813,808,799,792,791,792,794,800,803,799,798,799,802,797,800,799,800,799,796,793,788,784,785,787,789,789,791,791,793,796,797,799,802,799,796,798,797,802,798,802,804,802,803,803,809,813,817,824,821,820,819,815,815,816,814,819,826,831,838,844,843,841,840,839,835,832,825,821,818,819,815,817,816,807,801,792,785,780,776,779,783,786,792,797,798,799,794,793,789,785,786,788,789,790,789,797,804,818,840,873,920,983,1056,1139,1228,1314,1396,1463,1499,1509,1482,1406,1280,1152,1024,896,768,659,704,776,836,870,877,860,833,812,795,794,794,796,799,802,801,804,803,801,799,803,802,797,798,799,803,805,810,814,811,817,816,814,812,814,816,819,821,827,827,827,829,831,827,830,835,835,838,841,845,852,855,861,862,863,866,868,871,876,880,892,896,904,914,920,926,929,932,936,934,936,939,947,954,963,968,970,972,971,971,970,966,966,958,957,948,945,939,929,924,914,906,897,884,876,870,864,856,851,844,838,830,826,818,813,809,808,807,807,808,808,807,801,799,798,802,803,800,802,800,802,797,802,802,807,804,804,803,803,801,799,802,804,805,810,808,810,811,808,803,804,799,797,800,804,805,809,811,810,811,806,800,799,794,794,794,795,797,800,801,801,801,798,797,794,788,786,788,793,795,797,793,789,789,789,787,784,784,783,781,782,786,788,793,793,793,793,786,782,778,780,782,785,788,788,791,788,789,794,799,800,798,797,797,803,804,809,808,810,808,806,805,812,816,814,819,822,819,819,816,813,807,807,804,802,799,797,797,798,795,794,790,784,780,774,769,768,767,768,770,771,774,777,779,780,779,781,780,778,780,790,802,825,860,912,982,1064,1160,1260,1354,1434,1482,1500,1482,1415,1292,1164,1036,908,780,652,687,746,798,830,838,825,804,788,778,773,775,778,781,785,783,784,784,783,783,788,791,793,795,795,796,800,798,799,800,800,799,806,807,811,810,809,808,811,813,816,818,823,829,835,837,842,845,847,850,851,855,854,862,869,876,883,888,894,898,901,906,910,912,916,921,929,933,934,937,936,939,937,933,931,925,923,924,919,912,908,901,889,880,870,858,847,835,823,818,817,813,814,811,804,796,789,786,782,782,781,779,779,780,778,772,773,771,771,770,773,773,773,770,775,777,783,782,783,780,775,772,774,773,776,780,781,785,788,785,784,781,780,780,781,780,777,776,779,781,784,786,786,788,782,783,780,774,773,775,774,777,781,782,781,780,780,777,772,772,769,767,765,765,765,768,775,779,777,777,776,771,767,767,765,766,770,771,770,771,770,768,768,765,765,766,769,771,773,777,777,775,770,771,772,775,778,781,787,788,789,793,793,794,795,792,789,789,788,792,795,800,806,811,809,810,810,807,806,803,801,798,800,801,803,802,798,792,788,782,777,777,773,772,775,775,778,779,777,774,773,771,771,770,773,775,780,780,784,783,788,796,807,826,857,896,942,1003,1069,1142,1229,1313,1386,1438,1455,1429,1345,1217,1089,961,833,705,689,743,797,838,855,849,833,814,801,793,791,797,801,804,806,805,804,803,803,805,810,813,814,815,816,817,814,815,812,814,817,817,817,818,818,822,826,831,834,839,839,839,839,837,839,842,849,852,860,864,869,871,876,876,879,881,887,897,907,914,920,925,924,923,928,932,932,938,942,945,950,954,959,964,966,963,959,953,951,948,942,934,934,930,928,924,914,901,888,871,862,853,845,839,837,835,835,835,834,830,827,825,824,823,819,815,815,812,811,816,814,814,815,817,815,817,815,817,816,818,817,818,817,813,812,815,815,817,817,821,821,822,825,828,828,825,825,822,820,819,817,821,824,824,828,828,828,827,827,824,821,815,812,809,811,812,815,816,817,816,819,815,812,809,806,806,810,813,813,810,807,811,812,813,812,811,811,810,812,814,813,814,816,812,806,801,799,799,805,805,805,808,811,811,813,816,817,824,826,826,824,826,827,828,834,839,837,838,838,842,842,849,849,850,851,851,851,855,855,856,852,849,844,833,829,823,821,817,816,813,808,805,799,791,791,796,797,800,804,804,808,811,810,810,809,806,805,805,808,813,826,845,875,921,976,1044,1119,1203,1294,1379,1447,1499,1521,1523,1502,1451,1356,1228,1100,972,844,716,712,774,836,872,884,876,850,826,810,801,798,802,804,809,812,813,814,815,814,815,815,815,812,814,813,817,822,824,828,832,831,829,824,824,824,829,825,830,833,836,840,849,850,850,848,846,848,849,850,856,857,868,877,885,890,896,898,900,901,905,911,915,924,933,941,950,956,957,958,959,958,955,957,956,959,964,966,971,967,965,959,954,949,941,935,923,913,907,897,891,880,864,858,847,842,837,829,831,828,827,825,821,820,819,817,818,815,811,811,811,812,811,813,813,812,811,812,814,815,815,817,817,817,816,816,817,816,815,815,815,813,812,811,810,812,815,816,821,822,822,821,823,819,818,814,811,811,815,815,815,816,814,814,812,812,810,810,809,810,805,809,809,812,813,810,809,806,804,798,798,803,805,806,810,808,807,803,800,797,797,797,799,802,803,802,802,800,795,796,795,795,797,794,795,798,800,803,807,809,808,808,808,810,812,813,816,818,818,821,820,821,823,827,828,831,835,837,840,841,843,846,845,843,839,834,829,825,825,822,821,818,815,807,806,801,798,793,790,787,785,783,786,788,788,791,793,795,795,797,797,794,796,794,792,795,803,818,846,884,936,1002,1076,1161,1245,1327,1402,1460,1497,1511,1501,1466,1387,1259,1131,1003,875,747,693,740,801,849,873,871,856,830,807,793,788,789,793,801,806,807,809,808,807,801,800,795,795,800,804,809,813,817,817,817,818,820,820,822,821,820,818,821,825,825,829,831,833,837,839,842,843,842,843,846,852,862,871,875,880,883,884,886,888,891,895,907,914,919,924,932,937,938,944,950,953,957,961,963,967,967,970,970,968,965,961,957,955,950,947,944,940,933,925,912,900,892,882,871,860,848,839,836,832,831,828,825,820,815,810,806,804,803,801,805,804,807,806,802,803,800,803,806,802,799,796,792,795,798,802,805,812,811,810,810,807,805,804,804,806,807,813,815,816,814,810,806,803,802,800,801,804,803,805,805,805,807,807,806,802,796,796,794,796,796,800,802,801,803,798,796,795,789,790,789,790,790,790,791,792,792,791,792,791,787,786,786,787,789,788,788,788,785,785,784,784,785,784,787,792,793,793,787,786,778,773,774,777,784,785,799,808,813,816,812,808,802,801,800,800,805,806,811,813,817,820,826,823,821,817,818,815,812,806,807,806,802,800,796,787,786,781,779,776,774,772,771,770,767,769,772,774,771,770,768,768,766,765,768,770,777,782,794,811,835,878,929,997,1072,1160,1255,1349,1430,1483,1501,1481,1415,1287,1159,1031,903,775,647,686,751,810,846,851,835,805,784,766,759,758,765,770,773,774,776,769,767,768,769,768,773,770,777,780,782,788,787,788,791,791,788,786,783,784,787,789,792,800,801,807,808,810,810,813,816,816,819,822,826,829,832,835,839,842,847,852,855,860,865,874,883,891,894,899,900,902,901,904,911,911,917,924,929,935,935,932,929,921,914,909,903,896,886,881,869,857,849,838,830,826,817,811,808,802,796,791,790,790,786,781,775,770,771,768,767,767,771,771,773,773,772,774,774,776,773,768,766,764,764,768,770,773,777,782,781,779,777,774,773,768,770,771,774,773,776,774,774,773,768,767,764,765,767,769,772,777,775,773,768,763,759,758,757,757,755,759,761,764,765,765,767,761,754,753,747,748,753,754,754,753,753,753,756,757,754,753,752,751,753,752,750,757,756,756,751,748,744,745,747,746,753,757,761,766,766,764,766,768,769,769,769,770,766,774,773,776,780,781,786,789,791,794,791,792,791,794,794,791,792,791,788,786,779,774,768,765,763,761,757,757,757,756,754,754,753,753,754,754,756,761,761,764,766,765,764,763,763,766,771,782,805,838,883,946,1015,1097,1184,1272,1354,1418,1450,1448,1390,1279,1151,1023,895,767,639,643,701,761,800,819,819,808,790,781,774,773,774,776,776,776,774,775,777,779,779,784,783,784,781,783,780,786,783,782,784,792,797,801,807,809,805,804,804,807,804,801,807,809,817,825,826,829,827,831,833,837,842,847,850,858,863,869,869,874,881,885,893,899,906,909,915,919,923,926,928,931,932,933,936,935,937,935,933,935,937,937,937,932,923,906,897,887,869,859,853,847,838,830,825,821,815,807,805,801,803,794,795,794,788,791,791,788,785,784,783,782,781,780,786,788,791,791,787,786,788,787,790,794,794,795,795,796,796,795,796,799,797,797,799,796,795,795,795,797,796,796,798,795,799,794,792,786,784,785,786,789,791,794,792,791,791,789,783,784,781,778,777,781,781,784,787,780,779,777,782,781,784,781,778,779,779,781,783,784,784,783,785,783,782,779,777,775,775,775,778,775,775,775,775,775,772,771,772,777,783,783,788,789,792,793,797,796,795,793,795,799,802,806,808,805,806,808,815,816,818,821,819,817,817,817,817,816,819,820,818,813,808,803,797,792,787,785,785,783,781,772,770,764,762,765,765,767,769,771,772,772,770,771,768,768,769,769,772,775,784,793,804,823,853,894,954,1016,1093,1178,1263,1347,1418,1472,1501,1501,1468,1390,1263,1135,1007,879,751,631,669,739,801,841,854,842,822,801,785,776,778,780,783,787,788,783,784,780,780,778,774,777,783,787,789,794,795,799,801,800,794,793,794,796,797,803,811,816,818,818,817,815,816,818,820,817,821,824,829,836,838,843,851,853,863,866,869,873,876,880,885,890,898,905,911,915,919,925,929,933,940,944,950,953,957,957,958,960,955,954,943,937,937,936,931,927,924,911,900,886,871,860,850,842,839,831,825,821,820,815,810,806,799,793,791
