836,836,834,834,833,837,839,837,841,842,841,836,838,840,838,838,838,840,841,841,844,844,846,844,845,845,842,841,842,841,844,845,847,849,846,846,847,846,845,846,843,846,847,849,849,851,850,848,848,847,846,845,845,845,849,851,853,852,853,853,850,850,847,847,848,850,851,852,854,856,855,854,853,851,851,850,849,849,850,851,856,857,857,858,857,856,854,853,852,853,854,854,856,857,857,858,856,855,853,852,855,856,858,858,859,864,863,865,861,863,861,859,861,862,866,871,873,877,878,879,875,875,871,871,873,877,878,880,880,882,882,880,878,876,878,878,880,879,881,881,880,882,877,878,874,872,868,867,868,869,871,872,874,874,875,876,874,873,873,872,872,876,879,881,885,887,889,897,908,924,945,968,992,1016,1037,1052,1061,1067,1075,1082,1080,1075,1068,1053,1037,1020,1001,983,966,948,933,920,911,903,894,889,887,885,886,887,888,888,889,892,890,888,886,886,886,890,891,893,894,893,894,893,895,892,891,892,892,893,895,896,896,898,895,894,893,894,894,894,896,897,900,900,902,903,902,901,900,900,902,902,903,903,904,905,902,904,906,907,904,903,903,905,905,906,907,910,909,911,912,911,909,910,909,910,910,911,912,914,915,913,915,915,911,909,909,909,907,907,907,905,907,910,907,906,902,900,897,896,896,894,894,893,891,889,887,885,883,882,877,876,876,874,875,876,876,878,876,876,873,870,870,869,867,867,870,870,873,872,872,872,871,870,867,865,864,865,866,865,869,868,869,868,867,866,863,862,861,861,863,863,861,864,864,862,860,861,858,855,856,854,857,859,861,861,861,861,857,857,856,854,854,856,856,856,859,861,861,857,857,858,854,854,854,855,858,859,859,858,859,860,858,858,857,854,856,854,856,857,860,861,861,861,861,858,858,856,857,857,859,860,862,864,863,864,862,863,860,858,858,859,861,862,863,864,867,865,863,861,860,859,859,860,862,860,865,867,867,863,863,862,863,859,861,861,863,864,865,865,863,864,862,863,862,860,860,862,862,863,867,865,866,864,865,862,860,861,861,859,863,865,865,864,864,865,863,863,862,860,863,860,862,863,863,864,864,865,865,863,862,863,863,864,865,868,870,876,877,876,875,874,872,870,871,871,872,871,875,876,875,875,873,871,871,869,871,871,872,873,873,871,868,868,864,862,858,858,858,857,855,857,858,860,860,862,860,860,856,856,856,858,863,865,869,873,878,884,898,913,932,955,977,997,1014,1025,1033,1039,1046,1051,1052,1048,1036,1020,1005,989,972,958,940,926,912,899,890,881,872,866,864,862,863,866,868,870,872,871,868,866,868,865,866,868,872,874,874,875,875,873,871,872,872,872,872,872,876,878,878,877,879,876,879,878,877,876,876,880,879,881,883,885,883,884,883,882,883,881,881,881,883,885,885,887,886,886,885,885,884,884,887,887,889,890,893,895,893,893,891,891,892,889,889,894,895,895,896,899,898,898,896,895,894,894,893,896,896,897,897,898,892,894,892,891,888,886,884,884,886,884,884,885,882,879,876,873,870,867,865,867,867,867,867,866,865,864,861,860,858,858,856,859,858,857,859,858,860,859,858,858,855,853,851,852,853,853,851,852,854,853,850,847,846,845,845,845,847,846,846,849,847,845,844,841,841,838,839,839,839,840,840,842,841,841,839,839,836,834,836,836,838,841,840,842,842,838,838,839,836,835,837,838,839,840,840,841,845,844,843,842,840,839,840,840,842,844,844,849,848,849,846,844,845,844,844,845,848,846,848,848,849,845,846,846,842,844,847,849,851,850,849,853,850,852,850,850,849,848,849,848,848,850,850,853,852,854,852,855,852,850,852,852,853,853,854,854,855,856,855,851,851,851,850,851,852,854,853,854,854,849,851,852,851,851,848,850,854,854,858,858,857,855,854,855,853,853,852,854,853,855,854,856,858,858,858,855,855,855,855,856,861,867,867,872,870,869,867,867,866,869,867,866,868,870,871,872,871,870,868,868,867,867,863,864,864,865,861,862,861,857,857,859,859,854,855,855,855,859,863,864,864,861,860,860,864,863,868,870,876,888,904,927,950,976,1000,1023,1035,1045,1052,1058,1064,1064,1065,1060,1046,1031,1014,998,981,965,947,931,918,904,897,889,881,877,871,868,866,867,866,867,871,871,874,876,879,875,877,873,871,873,873,873,877,878,880,881,882,883,881,880,877,878,879,878,882,883,884,888,887,886,889,888,885,885,885,888,888,889,890,893,894,893,890,887,887,886,888,888,891,891,894,896,895,897,896,897,896,895,894,898,899,902,905,906,905,904,904,905,904,903,903,902,901,902,903,905,904,903,902,901,900,898,895,896,896,893,895,897,895,893,889,885,885,882,880,879,878,877,875,876,875,873,872,871,870,869,864,866,866,867,870,870,871,870,870,869,868,867,866,864,864,867,868,868,868,865,864,862,863,863,863,861,861,862,863,864,864,864,862,861,858,856,857,853,854,854,855,859,857,858,858,855,856,853,854,852,853,857,855,858,861,859,857,854,853,851,852,851,854,855,855,857,858,857,858,856,855,856,852,854,855,855,860,861,859,859,858,856,852,853,853,855,853,857,854,857,860,859,859,858,856,852,851,853,856,857,858,859,859,860,857,855,855,854,855,857,856,856,861,861,860,859,858,858,857,855,855,856,858,858,858,860,858,859,857,857,857,854,853,852,854,857,859,861,859,859,859,856,857,856,854,856,855,858,857,862,857,856,856,857,854,854,854,852,855,856,859,859,859,864,862,863,863,865,864,865,866,868,869,871,872,872,871,870,869,865,867,865,866,865,868,871,870,872,870,866,866,862,861,859,859,859,859,861,861,860,859,858,857,855,854,851,855,857,861,862,865,865,866,863,863,867,873,883,899,918,942,970,996,1018,1035,1046,1053,1056,1062,1065,1067,1056,1041,1029,1010,992,972,953,936,920,907,897,888,879,876,873,869,868,867,868,867,868,867,867,869,870,869,872,873,874,874,873,875,874,874,873,874,876,876,880,882,880,879,880,877,876,878,877,877,879,880,881,883,883,882,882,877,878,876,878,881,882,882,885,885,883,885,882,884,885,883,884,883,887,886,892,891,891,891,889,888,888,889,890,891,894,896,897,897,897,897,896,895,893,891,891,891,891,890,893,895,892,891,889,887,886,883,882,880,879,878,879,876,876,873,873,867,867,867,866,865,868,866,867,867,866,864,861,861,859,858,858,858,860,857,860,862,862,861,859,859,854,854,854,854,856,856,858,859,856,857,853,852,848,845,850,850,851,849,849,847,846,846,847,843,844,842,841,842,844,844,848,847,847,845,843,842,841,841,841,840,844,846,845,847,846,844,842,843,838,839,841,839,841,844,847,847,847,847,844,844,842,842,841,845,846,847,848,850,849,849,848,845,844,844,846,843,845,847,849,848,849,844,845,845,846,843,845,846,849,850,851,852,849,850,848,849,849,847,848,850,850,852,853,853,853,851,852,851,850,849,850,850,851,851,855,854,854,854,853,847,851,851,851,850,850,852,853,855,855,853,851,852,852,851,850,849,852,852,854,857,855,857,855,853,854,853,853,854,854,854,857,857,856,856,858,857,860,861,861,864,865,864,867,868,867,866,867,865,863,862,862,862,863,864,867,866,868,864,867,864,863,863,861,861,862,860,860,859,856,856,855,853,851,851,851,850,853,854,853,856,856,857,858,859,856,856,858,861,870,883,897,916,938,959,981,999,1013,1024,1031,1039,1045,1051,1056,1055,1044,1032,1016,998,979,961,944,929,916,903,895,887,880,875,867,863,861,858,858,860,861,864,865,863,863,865,861,862,861,861,862,863,864,867,867,869,869,870,865,867,866,865,864,867,867,869,871,874,873,871,870,871,869,867,868,871,871,873,876,875,876,874,873,871,871,871,872,873,875,876,879,880,879,880,879,876,877,874,877,878,881,882,883,885,885,883,883,882,882,882,882,884,886,887,889,889,887,886,884,881,882,880,880,880,880,880,883,882,880,878,874,872,871,869,865,867,866,865,866,864,862,861,855,853,849,848,851,851,850,853,851,851,850,851,847,847,846,844,846,847,845,847,848,850,849,848,845,845,844,842,841,842,843,843,843,846,844,843,839,841,839,835,838,836,839,837,839,839,840,835,835,832,832,830,828,831,830,831,832,833,831,833,830,833,831,829,829,830,832,829,833,834,834,832,832,830,829,827,830,830,832,834,835,836,834,834,835,833,832,831,835,835,834,834,838,838,839,838,836,836,832,831,832,835,837,838,839,841,843,842,839,840,836,836,837,839,839,842,841,844,841,841,839,839,839,835,838,838,839,841,842,845,844,843,842,840,839,839,837,838,842,843,845,845,843,843,843,841,840,839,840,842,842,845,848,848,849,847,845,845,843,842,844,842,845,847,849,848,849,849,847,846,847,848,848,849,848,854,858,861,861,860,858,856,856,854,855,857,859,860,861,861,862,865,864,864,859,860,859,861,863,865,867,868,864,860,857,855,851,848,848,850,852,850,853,855,855,854,853,854,854,853,855,856,856,861,865,870,875,890,905,926,951,975,996,1015,1029,1034,1043,1052,1056,1055,1049,1036,1020,1005,987,971,951,934,919,904,894,884,876,869,866,859,860,859,862,863,864,867,867,866,864,865,863,862,864,864,866,867,868,872,873,872,871,871,867,868,870,871,874,875,876,876,876,876,876,874,876,875,874,875,877,876,880,880,880,877,877,877,875,875,877,878,879,881,882,882,884,882,882,882,881,880,883,880,883,885,885,887,887,888,886,885,886,887,887,887,890,889,893,890,889,889,888,885,884,884,884,881,883,885,883,881,880,881,878,875,873,871,868,865,862,862,863,862,858,858,855,852,851,847,847,848,848,848,848,850,849,850,847,847,844,843,844,844,844,844,846,847,847,847,844,843,838,836,839,840,840,838,839,842,843,842,841,838,835,834,835,834,834,835,838,838,835,837,835,833,829,831,831,832,829,833,834,835,831,830,833,829,829,829,827,827,830,830,831,833,833,833,832,832,829,829,827,826,831,833,834,836,837,835,835,833,830,829,828,832,830,831,833,836,838,837,837,836,835,836,835,837,838,839,840,839,840,840,837,837,836,836,836,835,838,838,841,839,839,839,838,840,838,838,836,834,836,838,840,844,842,842,839,838,839,837,836,840,841,842,842,843,843,842,840,840,837,837,842,839,843,845,843,845,847,846,844,845,841,843,844,846,847,848,847,852,852,853,851,849,847,848,849,853,857,860,864,867,863,864,862,860,861,861,859,863,865,865,868,868,866,866,863,862,862,862,863,863,864,864,864,866,864,864,860,856,853,851,850,851,853,854,855,858,858,860,860,858,858,859,859,862,869,876,887,898,918,942,968,994,1016,1038,1050,1062,1070,1077,1080,1077,1061,1046,1024,1007,986,966,949,934,918,909,899,891,881,875,870,867,866,866,867,868,869,872,871,872,873,874,873,874,871,872,871,872,874,876,879,880,881,880,878,877,878,877,876,876,878,879,881,882,882,883,882,878,880,880,881,880,881,883,885,887,889,887,886,886,883,882,881,883,884,885,889,891,887,889,891,891,889,889,889,889,889,892,895,896,896,895,894,895,893,894,894,891,893,893,893,896,895,893,891,887,884,883,879,877,879,879,879,877,873,871,871,867,861,862,860,858,858,859,860,860,861,860,858,857,855,854,854,854,855,855,857,856,860,853,855,855,853,851,848,850,853,853,853,854,854,853,848,850,848,846,844,846,845,844,847,846,846,845,842,840,839,837,837,837,839,840,842,842,841,840,839,839,837,837,836,838,838,839,838,840,839,840,839,839,837,838,833,836,838,840,842,841,840,838,837,838,837,838,837,837,838,841,842,843,843,843,842,840,840,837,838,839,839,841,843,845,846,844,844,844,843,842,843,841,842,842,845,844,846,848,845,846,843,843,844,845,843,843,847,850,847,847,844,845,845,843,843,845,843,845,847,846,849,847,844,845,846,843,841,842,843,844,846,848,849,847,845,845,844,846,845,845,844,846,848,849,847,849,846,846,842,843,844,848,851,853,858,860,862,863,860,859,858,858,859,860,862,862,863,864,863,862,863,861,861,860,860,860,862,863,864,863,861,860,857,856,854,851,848,848,847,847,851,853,852,853,851,850,850,848,850,849,850,852,853,857,858,864,872,882,900,920,946,975,1000,1023,1040,1049,1053,1058,1062,1063,1059,1046,1028,1014,997,980,967,953,936,917,904,892,881,875,865,863,862,863,865,868,865,867,866,864,864,863,865,865,867,869,869,872,872,870,869,868,868,869,869,869,870,872,872,875,876,877,878,876,873,875,874,873,876,879,878,882,880,880,877,876,876,880,877,880,881,881,881,884,883,884,883,883,883,884,883,882,885,887,888,888,889,889,886,885,887,889,889,887,890,892,894,894,894,892,893,893,892,889,888,887,889,891,891,890,889,887,886,883,880,878,875,874,874,875,876,874,872,868,866,862,862,855,850,851,851,850,849,851,849,849,849,849,846,846,846,847,846,849,846,851,850,847,847,846,846,842,843,841,842,844,846,847,846,846,841,840,835,835,835,835,835,836,835,841,838,836,834,832,832,830,829,830,831,830,833,834,833,832,831,829,828,828,828,830,832,831,833,835,833,833,832,830,829,829,827,828,830,830,833,833,831,829,831,829,829,829,829,829,829,832,832,832,833,834,832,832,831,830,831,830,830,832,835,836,837,836,836,836,834,832,831,832,833,835,835,839,838,837,835,834,832,834,832,832,834,836,837,835,839,839,837,837,836,835,835,835,837,837,840,839,840,840,839,836,837,836,831,834,832,838,838,840,840,840,838,838,839,839,837,840,842,845,850,851,855,853,852,851,848,850,847,848,849,851,851,855,855,856,855,855,852,851,852,851,851,851,852,851,849,848,847,844,838,836,834,834,837,838,841,843,843,839,838,840,838,840,838,840,845,848,853,858,864,873,888,905,927,952,975,995,1013,1027,1034,1045,1050,1055,1049,1037,1019,1000,983,965,945,928,911,896,882,873,860,855,849,846,841,843,846,848,849,852,851,852,852,847,847,848,846,845,849,849,853,854,855,854,855,853,852,853,852,851,853,855,859,860,860,860,860,860,861,858,857,857,857,859,861,861,863,861,861,860,863,862,861,863,864,864,864,866,866,866,867,864,863,864,864,861,865,866,869,871,871,871,870,871,866,867,867,865,871,873,874,876,875,874,872,873,870,867,867,865,867,867,868,869,867,865,863,862,858,857,853,851,849,850,848,844,843,842,842,841,841,838,835,836,837,838,836,839,840,838,838,837,835,832,831,832,832,834,835,836,836,835,829,828,829,826,823,824,826,825,825,830,830,829,827,825,824,821,821,818,819,821,821,822,823,819,821,819,818,816,813,814,812,817,818,819,818,818,815,812,813,812,811,812,813,813,812,817,817,815,818,815,815,813,812,810,812,814,817,820,820,821,820,816,816,815,815,812,814,812,812,816,819,820,820,819,816,814,813,814,814,814,819,819,820,818,819,815,816,813,813,817,816,818,821,822,820,820,819,820,818,817,814,812,815,815,816,821,822,820,820,818,818,817,816,818,817,818,821,821,824,823,820,818,817,816,816,813,817,818,819,822,821,824,827,826,825,826,827,830,832,835,835,836,834,833,835,835,833,834,833,831,832,833,833,834,838,839,837,835,831,829,825,826,827,829,827,827,827,825,823,818,817,816,819,818,818,819,824,823,824,821,821,820,821,824,828,830,835,844,859,877,899,924,943,963,980,987,995,1000,1007,1016,1021,1019,1011,997,981,963,945,925,906,887,875,864,857,850,843,835,833,827,825,826,827,827,827,828,831,830,830,833,831,830,828,828,824,828,830,832,832,836,835,839,840,837,835,835,834,838,838,840,841,841,846,844,840,842,842,840,840,841,842,842,846,846,848,848,847,847,847,845,844,845,846,848,849,851,851,853,852,853,852,851,852,852,855,855,857,859,860,861,859,857,859,856,857,855,857,859,855,858,859,857,854,855,853,851,849,847,847,845,847,849,846,844,839,837,835,833,830,829,830,831,831,831,829,829,826,825,822,820,821,820,820,822,820,823,820,823,822,821,819,818,815,815,817,819,816,820,817,819,819,817,817,815,811,811,810,812,811,813,813,809,808,810,808,804,807,807,806,807,806,808,809,808,807,804,804,803,802,802,803,803,804,804,807,805,805,803,804,803,801,801,805,805,807,807,808
