991,990,987,980,978,974,972,970,970,970,968,968,969,973,980,987,993,999,998,995,988,979,973,972,974,979,981,981,979,983,983,985,987,988,987,984,985,985,983,980,979,980,981,985,986,986,987,989,990,992,992,993,992,994,997,999,998,996,995,998,1002,1007,1005,1006,1006,1011,1014,1015,1011,1005,1004,1009,1016,1022,1024,1020,1017,1019,1024,1033,1033,1033,1034,1033,1032,1031,1031,1030,1028,1030,1030,1029,1027,1027,1028,1034,1036,1036,1034,1027,1021,1016,1013,1013,1019,1021,1016,1015,1010,1010,1010,1010,1008,1009,1010,1012,1010,1010,1005,1008,1010,1010,1008,1008,1005,1005,1006,1009,1008,1005,1002,1005,1010,1009,1005,1004,1006,1007,1003,999,993,989,988,989,990,990,990,989,991,993,995,989,989,987,989,993,995,995,994,992,991,991,994,995,996,996,995,999,1003,1005,999,997,996,1000,1009,1014,1017,1013,1007,1006,1009,1012,1018,1018,1016,1013,1009,1006,1009,1008,1006,1005,1004,1004,1004,1003,1001,1000,1001,1001,1006,1003,1003,1002,1005,1005,1003,1001,1000,1003,1006,1010,1010,1008,1008,1009,1008,1009,1009,1006,1000,995,992,995,999,1001,1001,996,994,995,996,997,999,999,1001,1003,1001,999,997,995,995,995,994,991,990,995,999,1008,1020,1033,1043,1061,1081,1100,1120,1144,1166,1191,1210,1223,1228,1225,1211,1195,1179,1155,1114,1064,1025,996,982,968,965,966,969,975,982,985,985,983,978,977,979,974,968,965,963,965,964,966,968,972,973,972,974,976,977,976,974,977,975,977,975,976,975,973,977,977,975,976,975,977,982,982,980,979,977,978,982,986,987,986,986,987,989,991,989,987,986,989,991,992,993,990,992,995,997,997,996,992,991,995,999,1003,1005,1004,1002,1006,1008,1011,1011,1012,1012,1014,1016,1016,1017,1017,1015,1018,1020,1023,1024,1022,1018,1022,1025,1025,1025,1026,1024,1024,1028,1025,1026,1022,1021,1022,1024,1024,1018,1016,1013,1013,1014,1008,1010,1007,1005,1004,1006,1009,1005,1007,1006,1005,1009,1008,1008,1007,1004,1003,1005,1004,1003,999,1000,1001,999,997,998,998,995,995,996,997,1000,1001,999,1001,1001,996,988,980,982,986,991,991,992,988,986,988,987,986,985,985,984,986,989,991,991,990,988,990,991,992,994,994,994,992,994,997,1000,998,997,998,1001,1000,999,997,998,1000,1006,1011,1010,1007,1006,1004,1006,1002,999,997,995,998,1000,1004,1003,999,995,995,997,999,997,997,995,997,1001,1004,1005,1004,1003,1003,1002,999,998,995,995,996,997,999,997,996,996,996,998,998,997,998,998,1002,1002,1003,1001,993,991,995,1004,1020,1036,1052,1071,1094,1116,1135,1156,1181,1201,1216,1218,1203,1181,1154,1113,1054,1002,968,950,939,937,945,955,964,971,973,972,977,981,981,977,970,971,974,975,975,976,974,974,978,984,987,988,986,986,986,987,987,985,984,982,982,980,981,982,981,979,981,981,986,988,987,987,991,991,994,994,992,991,994,996,996,997,998,996,998,998,1001,1004,1005,1004,1005,1005,1007,1009,1010,1010,1013,1015,1015,1016,1018,1016,1018,1016,1022,1022,1024,1025,1026,1030,1032,1030,1028,1030,1031,1034,1033,1035,1034,1032,1033,1036,1038,1037,1034,1032,1032,1036,1035,1034,1032,1027,1027,1029,1027,1025,1018,1017,1020,1018,1017,1017,1016,1012,1013,1014,1013,1012,1012,1012,1016,1017,1016,1018,1013,1012,1011,1011,1013,1012,1009,1007,1010,1011,1012,1012,1009,1008,1010,1011,1012,1011,1002,996,1000,1003,1003,1006,1003,1002,1000,1001,1001,1000,1000,1000,999,1000,1002,999,999,996,996,998,998,998,999,995,1000,1002,1005,1005,1002,999,1000,1001,1004,1006,1007,1006,1005,1011,1016,1017,1020,1020,1021,1020,1016,1012,1009,1009,1013,1015,1017,1017,1013,1010,1008,1008,1008,1009,1008,1005,1006,1009,1013,1011,1007,1005,1008,1011,1011,1011,1008,1007,1009,1011,1011,1010,1009,1005,1004,1007,1009,1010,1006,1004,1007,1007,1009,1011,1007,1004,1007,1010,1011,1013,1011,1008,1010,1008,1002,999,996,999,1010,1022,1040,1058,1078,1101,1123,1145,1166,1190,1212,1237,1254,1263,1252,1227,1198,1155,1095,1035,995,970,958,955,963,975,986,991,991,984,984,982,982,982,978,977,976,978,980,980,981,981,984,986,988,988,984,979,978,981,984,983,984,984,985,987,987,989,986,985,989,990,992,993,990,987,989,991,994,995,993,992,993,994,994,995,995,995,999,1003,1004,1005,1001,1002,1006,1010,1012,1011,1015,1013,1012,1014,1016,1017,1016,1019,1019,1022,1022,1020,1019,1020,1024,1026,1029,1029,1029,1031,1031,1033,1037,1036,1036,1036,1035,1040,1039,1037,1036,1034,1034,1034,1033,1034,1030,1028,1028,1024,1024,1023,1022,1019,1022,1024,1022,1021,1021,1019,1020,1019,1020,1019,1018,1018,1017,1018,1017,1016,1015,1010,1008,1010,1012,1011,1010,1006,1004,1009,1009,1011,1011,1010,1011,1010,1011,1009,1006,1006,1007,1010,1009,1006,1002,1002,1000,1001,1002,998,997,997,996,999,1001,1000,1000,999,1001,1002,1005,1005,1006,1006,1006,1007,1012,1013,1013,1010,1011,1014,1017,1019,1022,1021,1024,1023,1020,1018,1013,1009,1008,1008,1011,1011,1010,1008,1007,1010,1010,1010,1012,1007,1006,1009,1010,1009,1010,1010,1011,1014,1018,1017,1015,1010,1007,1009,1007,1004,1001,1000,1003,1005,1007,1008,1004,1003,1003,1004,1005,1008,1008,1007,1009,1011,1011,1011,1010,1006,1006,1006,1003,1000,998,1001,1013,1028,1047,1066,1086,1102,1123,1140,1160,1185,1213,1240,1260,1264,1257,1238,1212,1181,1136,1076,1025,990,973,963,963,968,976,984,991,990,988,989,991,990,987,982,980,981,983,977,976,974,979,983,985,986,983,981,988,992,995,994,986,977,973,979,984,987,994,992,992,995,996,999,999,997,996,996,1003,1013,1017,1016,1007,990,984,990,997,999,995,989,986,991,996,995,999,1012,1023,1021,1010,1003,1001,1011,1021,1029,1036,1035,1033,1028,1028,1027,1026,1019,1018,1021,1029,1033,1038,1040,1038,1038,1038,1034,1032,1025,1025,1031,1038,1033,1024,1015,1020,1029,1033,1024,1017,1013,1014,1013,1008,1004,1011,1023,1034,1029,1019,1007,1008,1016,1014,999,985,980,988,998,1000,998,994,992,999,1007,1004,996,990,983,986,991,997,1001,1005,1000,982,966,970,985,1000,1001,987,971,974,985,994,990,984,975,975,980,984,982,980,978,980,979,981,983,986,991,993,996,996,1001,1006,1007,1007,1000,994,990,995,1000,998,988,979,974,971,965,966,971,976,979,982,981,982,985,989,997,1007,1014,1022,1020,999,970,949,952,969,977,974,969,969,974,983,987,987,982,977,976,980,979,975,972,969,970,975,984,988,985,976,968,975,988,1006,1024,1038,1050,1069,1091,1120,1146,1168,1183,1190,1191,1190,1181,1165,1137,1087,1025,969,932,914,914,928,940,949,950,950,950,956,962,964,963,958,952,940,941,945,953,964,969,974,972,972,971,971,976,987,1004,1012,1000,966,932,921,933,951,966,971,969,972,971,969,967,967,966,971,976,981,980,976,976,977,982,988,991,990,985,981,978,980,982,989,992,993,996,1003,1009,1006,995,988,985,988,997,1005,1011,1022,1033,1040,1037,1024,1018,1027,1043,1051,1029,997,972,972,994,1011,1016,1011,1005,999,999,1005,1013,1014,1015,1020,1019,1020,1013,1007,1002,1005,1013,1020,1018,1007,991,976,969,972,984,996,1004,1010,1014,1005,987,973,970,983,990,997,1002,1003,1004,1011,1022,1018,990,964,956,968,983,985,981,973,974,980,987,989,987,986,980,980,988,996,1000,998,994,993,999,998,982,963,953,955,968,980,986,988,987,988,988,991,993,996,997,1005,1008,1009,1013,1022,1029,1033,1022,1005,995,999,997,992,985,982,985,985,983,987,995,996,997,1000,1007,1007,1001,993,988,980,975,984,999,1010,1016,1015,1011,1007,1003,1000,996,993,993,990,984,979,979,982,986,995,1003,1009,1009,1004,993,985,984,985,992,1005,1028,1059,1082,1107,1138,1164,1179,1189,1202,1218,1220,1199,1169,1126,1068,1013,980,967,966,968,973,978,982,985,987,988,991,991,978,957,945,948,960,968,972,970,967,965,964,965,969,969,967,970,975,977,974,975,980,989,990,974,967,959,968,985,1000,1006,1006,998,983,968,958,964,974,981,985,990,1005,1013,1007,991,981,977,977,982,992,999,1002,1006,1016,1030,1035,1032,1019,1010,1009,1010,1015,1019,1023,1032,1034,1038,1028,1019,1012,1012,1014,1017,1020,1020,1019,1022,1028,1028,1028,1027,1024,1031,1037,1048,1046,1035,1021,1012,1010,1012,1008,1000,996,1000,1010,1009,997,988,985,988,997,1001,1004,1005,1001,1003,1007,1016,1020,1014,1002,995,995,998,1003,1011,1016,1013,995,972,959,968,984,997,1000,1003,1012,1029,1025,1004,974,955,953,967,980,996,1004,1002,989,977,970,976,984,992,997,1003,1001,999,991,991,994,1001,1001,999,995,996,1003,1011,1011,1004,995,994,1000,1004,1000,995,986,987,993,1002,1004,1010,1026,1036,1032,1012,992,973,965,970,982,999,1008,1019,1021,1015,1000,984,975,975,980,989,998,999,994,998,997,990,985,985,987,998,1005,1008,1004,1000,997,1000,1004,1002,1003,1005,1009,1014,1016,1026,1044,1063,1073,1079,1086,1107,1136,1172,1214,1253,1273,1260,1225,1183,1151,1130,1101,1059,1016,988,970,961,961,967,977,984,994,995,987,974,964,962,967,973,972,970,967,967,966,968,968,972,978,980,976,974,975,979,982,981,980,983,983,984,982,978,971,967,967,973,974,975,979,986,990,999,996,984,970,966,971,984,988,987,984,985,982,979,978,984,989,996,1001,1005,1010,1011,1009,1006,999,996,994,994,998,1003,1009,1013,1010,1007,1008,1012,1017,1019,1022,1026,1031,1042,1051,1052,1040,1024,1009,1006,1010,1019,1026,1032,1039,1043,1039,1035,1024,1018,1011,1010,1014,1016,1021,1025,1030,1035,1035,1030,1017,1004,993,994,999,1004,1008,1010,1010,1011,1013,1015,1014,1006,998,998,1002,1010,1011,1011,1009,1011,1013,1016,1018,1019,1021,1022,1021,1016,1013,1005,1001,996,995,995,995,995,992,990,989,987,989,993,1003,1015,1020,1024,1017,1003,990,985,988,993,1003,1013,1013,1005,994,986,983,979,980,983,988,994,997,992,990,992,997,1001,1009,1014,1011,1008,1007,1009,1011,1016,1024,1035,1044,1037,1021,1004,988,981,984,993,1001,1002,998,998,998,1000,998,995,994,996,1002,1006,1006,1003,997,1000,1000,1002,1003,1005,1004,1005,1008,1015,1014,1014,1010,1008,1005,1003,1003,1005,1005,1009,1014,1019,1024,1022,1011,1000,991,982,986,992,992,993,994,1000,1008,1013,1009,1004,997,991,987,983,978,980,984,989,999,1011,1022,1034,1050,1072,1093,1113,1126,1144,1170,1193,1215,1224,1224,1216,1201,1187,1179,1156,1118,1075,1036,1006,992,985,978,973,968,970,973,978,980,974,965,957,957,960,963,965,970,978,981,984,983,982,976,972,969,967,963,960,956,962,970,976,977,979,983,986,980,969,960,956,958,964,970,974,979,981,979,973,968,963,962,962,958,959,965,970,972,979,982,985,988,990,985,982,981,980,980,977,974,971,970,972,977,982,991,998,1001,997,991,981,976,979,992,1002,1006,1004,999,997,996,995,1002,1006,1006,1008,1009,1013,1012,1013,1012,1013,1017,1019,1021,1018,1020,1021,1022,1025,1026,1024,1023,1022,1023,1024,1024,1022,1017,1016,1015,1017,1021,1021,1020,1017,1016,1014,1012,1009,1005,1008,1007,1010,1011,1006,1005,1007,1007,1006,1006,1002,1000,1000,1010,1015,1009,1003,998,999,1002,1004,1002,995,996,997,996,999,1000,997,992,992,991,995,994,992,990,988,989,991,995,995,990,989,985,984,982,983,983,990,990,989,985,985,984,987,987,984,982,983,980,982,979,983,984,985,984,985,986,988,988,986,985,987,990,990,990,988,987,992,996,1002,999,996,992,992,997,1002,1004,1003,1000,997,998,998,998,989,989,993,998,1001,996,994,990,994,995,996,999,998,995,996,997,998,996,995,996,994,998,999,995,990,986,989,993,992,990,985,981,983,990,992,991,992,990,991,991,992,993,993,990,990,989,989,987,987,981,979,979,991,1008,1024,1030,1048,1068,1086,1102,1113,1130,1153,1173,1191,1198,1195,1176,1161,1138,1111,1064,1015,975,955,939,933,936,943,950,958,964,971,975,976,977,975,973,969,964,964,962,967,969,972,976,977,974,973,970,967,967,969,972,976,976,975,977,976,975,977,980,980,980,982,978,979,982,984,988,985,981,982,987,987,988,987,985,987,987,986,987,987,988,991,991,991,987,985,986,993,1002,1008,1009,1008,1006,1007,1011,1012,1011,1010,1007,1008,1014,1016,1017,1016,1014,1014,1018,1020,1020,1018,1019,1021,1023,1029,1030,1030,1030,1030,1027,1029,1025,1026,1026,1028,1030,1030,1029,1024,1024,1022,1020,1020,1019,1015,1010,1013,1016,1014,1017,1017,1013,1012,1010,1010,1009,1007,1006,1010,1011,1013,1011,1004,998,1005,1010,1013,1009,1005,1000,1003,1007,1006,1005,1004,1002,1003,1003,1002,1003,1002,1002,1003,1001,1003,1004,1002,998,996,995,997,997,997,993,1000,1001,1001,999,998,997,1001,999,999,996,995,994,996,995,999,999,1002,996,998,1001,1003,1003,999,1000,1003,1009,1012,1011,1010,1008,1007,1012,1017,1014,1017,1017,1017,1019,1017,1019,1019,1016,1014,1014,1015,1014,1011,1007,1008,1008,1008,1008,1006,1003,1006,1007,1006,999,996,997,1002,1007,1010,1011,1011,1008,1007,1007,1009,1006,1003,1001,1001,1004,1007,1006,1003,1000,1002,1005,1009,1007,1006,1003,997,998,998,997,996,990,992,997,999,998,998,998,1006,1021,1040,1056,1073,1091,1110,1133,1154,1181,1203,1224,1239,1255,1249,1235,1199,1142,1065,1001,967,951,943,941,950,963,979,988,989,988,991,992,997,993,988,978,970,968,967,971,975,978,984,981,974,965,964,964,975,977,979,973,969,972,977,983,985,984,981,979,979,983,984,982,981,982,984,984,990,988,991,988,992,993,995,995,999,1004,1008,1011,1010,1010,1008,1009,1011,1007,1002,998,991,987,992,998,1008,1014,1016,1015,1013,1014,1018,1018,1023,1018,1017,1019,1025,1031,1028,1026,1028,1027,1026,1024,1021,1019,1015,1016,1016,1018,1020,1020,1022,1023,1020,1017,1014,1011,1012,1011,1010,1009,1010,1006,1001,996,998,1003,1007,1006,1009,1009,1008,1001,998,997,999,994,995,994,994,993,995,993,994,995,997,993,990,987,985,987,991,991,992,994,995,993,993,994,999,998,994,990,991,995,1001,1006,1008,1009,1008,1001,1000,1004,1007,1007,999,992,991,995,1002,1003,1001,996,992,993,996,998,997,995,992,987,992,991,989,991,994,1002,1004,1006,1004,1002,1002,1000,999,998,997,996,997,996,1000,1000,1000,997,999,1002,998,993,991,992,997,1000,1001,1002,1003,999,995,992,996,1006,1018,1033,1050,1075,1097,1117,1132,1152,1175,1203,1226,1241,1246,1234,1219,1196,1156,1095,1031,989,968,957,951,951,960,969,978,986,991,989,986,981,972,970,972,973,974,968,968,968,974,979,982,981,982,983,984,983,981,977,976,975,976,972,974,976,982,986,986,988,988,985,983,982,984,986,985,984,985,987,986,986,989,993,997,995,993,997,997,996,1000,1000,1003,1004,1004,1005,1008,1012,1019,1021,1022,1021,1022,1020,1013,1014,1017,1017,1018,1015,1019,1022,1024,1022,1021,1021,1024,1032,1035,1033,1032,1032,1034,1031,1031,1026,1027,1028,1029,1023,1022,1023,1023,1019,1017,1019,1014,1015,1015,1017,1018,1016,1015,1010,1009,1014,1013,1013,1012,1008,1010,1010,1012,1010,1008,1005,1005,1004,1005,1006,1004,1000,1001,1003,1007,1007,1006,1003,1007,1009,1008,1008,1003,995,990,986,982,984,991,993,991,988,988,990,994,994,996,999,1001,1004,1006,1005,1004,1008,1012,1012,1007,1006,1010,1016,1016,1014,1011,1009,1008,1007,1009,1009,1005,1006,1007,1009,1010,1004,1002,1006,1017,1026,1025,1016,1003,994,993,989,983,975,973,973,978,980,982,982,986,992,1003,1011,1005,998,990,985,988,993,990,984,976,973,978,976,978,980,987,998,1017,1038,1060,1084,1099,1112,1130,1156,1182,1203,1215,1212,1198,1186,1166,1133,1089,1049,1013,982,965,961,974,979,981,982,983,986,989,986,983,982,985,989,987,980,983,989,994,993,994,996,1000,1003,1008,1016,1020,1025,1022,1018,1013,1008,1009,1004,1002,998,1003,1013,1014,1010,1011,1020,1026,1022,1010,998,994,992,994,999,1003,1005,1011,1016,1015,1010,1007,1005,1010,1014,1016,1021,1021,1017,1016,1011,1008,1003,1006,1012,1021,1033,1037,1031,1017,1008,1009,1020,1036,1044,1040,1029,1026,1029,1044,1048,1031,1010,998,1000,1009,1017,1023,1026,1033,1037,1030,1017,1004,1000,1003,1007,1010,1012,1009,1004,1001,1005,1008,1008,1004,999,994,994,1003,1012,1014,1012,1009,1008,1003,994,988,985,990,999,1011,1018,1017,1006,997,990,987,986,982,974,970,972,977,986,988,986,981,973,968,972,975,977,977,978,981,983,980,978,976,981,981,979,976,976,979,980,982,983,982,977,975,976,984,992,997,996,985,972,972,981,994,1003,1009,1002,987,979,975,977,974,978,985,987,979,973,975,980,987,990,985,983,984,991,996,998,999,998,999,1010,1023,1019,998,978,976,990,998,1002,1007,1023,1028,999,958,944,953,982,1000,1012,1022,1021,1003,984,978,992,1015,1041,1071,1083,1082,1083,1114,1169,1224,1261,1268,1245,1216,1199,1188,1146,1068,991,947,931,926,927,941,956,973,988,992,989,985,978,968,959,953,956,965,971,980,985,987,984,978,975,977,981,986,987,992,1002,1013,1020,1016,1006,995,986,979,974,969,969,980,993,1001,1006,1006,1001,998,999,1001,1008,1016,1018,1017,1006,1001,1008,1025,1041,1049,1048,1037,1018,993,985,1004,1033,1054,1049,1026,1016,1026,1046,1054,1047,1043,1052,1064,1065,1059,1044,1030,1014,1018,1027,1043,1052,1052,1049,1046,1041,1034,1027,1032,1043,1059,1078,1086,1070,1036,1008,998,1008,1033,1058,1064,1052,1032,1020,1025,1039,1045,1039,1024,1013,1016,1039,1060,1056,1037,1021,1019,1026,1030,1032,1032,1034,1029,1015,1000,995,1004,1011,1023,1033,1042,1039,1027,1009,997,997,1001,1012,1023,1036,1038,1030,1016,1009,1010,1011,1008,1010,1019,1027,1035,1043,1050,1054,1053,1050,1037,1025,1018,1009,1004,1003,1012,1025,1033,1034,1036,1037,1038,1035,1033,1029,1021,1018,1019,1022,1024,1020,1014,1014,1016,1025,1033,1039,1039,1036,1035,1032,1024,1016,1018,1027,1037,1042,1037,1028,1022,1024,1039
