812,813,809,809,807,808,808,809,809,810,807,805,806,803,805,806,805,803,802,800,798,799,798,799,798,799,797,794,792,795,798,802,805,806,804,799,797,797,797,800,798,798,800,802,805,802,803,800,801,802,801,800,802,806,813,817,821,824,826,826,825,823,822,824,823,826,827,834,841,839,841,842,839,839,836,834,835,835,834,837,839,835,836,825,815,807,799,793,793,794,793,798,802,797,798,794,795,792,793,797,802,803,803,803,802,798,801,816,833,867,918,988,1075,1168,1263,1357,1436,1490,1519,1520,1498,1457,1378,1254,1126,998,870,742,728,769,822,861,875,871,850,832,817,811,808,811,816,813,810,809,808,806,805,808,807,811,815,821,823,823,824,822,824,821,820,823,821,825,828,831,835,839,841,842,842,846,845,849,853,855,858,861,867,868,871,871,872,875,880,887,892,903,910,917,923,924,925,929,935,942,952,959,963,968,975,980,981,983,982,977,975,974,972,966,957,956,948,941,935,923,916,901,890,883,875,867,861,854,847,844,840,840,839,835,829,823,820,819,819,819,821,824,825,825,824,823,823,820,816,814,814,813,812,817,822,824,825,824,823,820,819,822,819,822,825,826,829,828,827,821,824,824,827,828,827,827,830,833,833,833,832,828,826,822,815,817,817,821,825,825,828,826,826,825,825,822,817,812,811,813,812,819,825,828,827,825,818,817,814,812,812,818,817,819,818,816,813,814,815,811,811,808,811,814,816,816,818,816,818,821,824,823,828,826,827,834,833,832,838,840,839,841,841,845,843,849,848,847,848,842,845,845,843,845,837,838,834,832,830,828,825,820,817,811,803,794,793,793,796,799,804,806,806,811,808,806,804,803,805,803,801,800,803,810,827,856,903,965,1040,1126,1220,1311,1398,1467,1509,1525,1517,1483,1412,1291,1163,1035,907,779,706,744,806,857,880,882,864,837,816,798,795,797,798,800,800,802,804,804,805,806,808,808,806,806,806,809,804,810,812,817,818,820,820,821,822,823,822,818,815,814,817,827,834,841,849,849,849,850,852,855,861,868,876,881,882,887,894,895,897,899,904,908,915,924,933,941,947,953,955,954,952,956,958,958,960,960,963,960,957,958,948,940,934,923,912,899,890,883,874,869,862,854,848,834,830,824,818,811,806,802,802,805,808,811,812,808,803,797,791,786,786,791,797,798,802,804,803,803,803,800,795,793,796,798,801,805,806,805,802,804,803,804,805,804,805,805,805,803,800,798,801,799,801,797,791,791,790,791,795,799,798,800,797,795,794,789,788,784,786,785,787,786,787,788,789,787,787,785,785,785,781,779,782,783,784,787,787,782,780,780,781,780,781,781,785,787,787,785,783,785,784,787,787,790,793,797,801,799,801,798,798,798,796,794,796,798,802,807,809,814,817,822,822,821,821,815,812,813,805,807,804,804,805,805,799,794,787,779,776,769,770,770,771,773,774,773,770,769,768,768,769,765,768,769,768,770,772,775,776,780,789,802,823,853,896,954,1021,1102,1189,1282,1366,1432,1472,1476,1437,1348,1220,1092,964,836,708,667,702,753,798,823,830,820,810,794,787,781,781,780,780,778,775,773,769,764,771,771,778,783,789,789,786,786,783,780,779,776,779,786,789,794,798,798,799,799,801,799,804,807,808,811,810,811,814,815,814,815,817,818,825,826,835,842,848,857,864,868,871,874,876,876,880,883,886,888,897,904,915,922,927,933,930,932,928,924,925,928,930,929,928,924,920,915,909,900,890,882,876,870,865,856,855,847,837,824,815,809,805,796,785,781,780,781,787,791,788,787,781,778,772,770,771,777,779,784,785,783,785,780,783,777,780,784,786,789,790,792,791,790,791,787,788,785,784,783,786,790,794,796,798,796,798,791,790,792,792,794,791,793,794,795,798,798,797,794,792,789,789,785,787,788,788,786,787,782,783,782,782,782,786,785,784,782,782,783,784,781,784,788,785,784,783,785,779,785,785,787,787,782,783,786,782,781,781,781,781,787,788,797,802,806,803,804,802,802,801,801,801,805,808,813,820,823,829,827,827,821,820,816,813,811,811,817,818,819,817,811,803,793,786,781,774,779,781,777,778,778,778,778,778,778,781,780,780,781,781,783,786,786,788,791,794,808,839,883,945,1022,1119,1219,1322,1408,1468,1493,1479,1417,1295,1167,1039,911,783,682,728,792,842,867,866,850,824,805,789,788,788,789,794,791,787,782,781,781,784,790,793,795,796,798,803,802,801,802,806,803,800,797,798,801,810,815,821,826,826,828,829,830,831,828,828,832,831,836,838,839,844,847,850,851,857,864,868,873,885,891,897,904,907,910,912,917,921,927,930,939,944,952,956,962,962,961,963,963,963,963,962,958,956,951,946,937,932,925,910,901,892,880,870,864,857,852,848,843,839,834,824,819,815,812,810,811,811,815,814,814,808,803,798,798,800,798,799,797,799,803,807,808,806,808,807,808,802,799,795,800,803,806,813,817,816,816,816,816,814,813,810,809,808,808,814,815,813,815,812,810,809,811,811,813,812,813,815,816,809,807,806,804,802,803,803,804,804,807,807,808,807,803,802,798,797,798,798,798,799,800,803,803,804,807,807,806,804,798,793,793,795,796,801,802,802,805,800,800,801,795,793,800,803,805,813,818,822,824,826,826,822,821,815,816,814,820,828,835,842,841,846,846,846,837,830,827,825,825,827,825,828,827,822,815,809,806,801,800,798,798,795,797,796,795,790,791,787,789,789,788,797,799,799,795,792,798,800,811,825,858,908,974,1056,1149,1248,1344,1424,1484,1509,1510,1482,1417,1293,1165,1037,909,781,700,751,815,863,882,875,850,826,809,799,797,801,805,804,809,806,807,805,803,801,801,801,803,806,811,812,814,815,815,814,815,813,812,815,820,821,827,831,834,833,833,833,833,835,841,847,850,856,861,864,867,866,870,875,877,883,892,899,909,917,922,925,932,935,935,937,942,947,952,960,965,971,971,967,962,956,947,943,935,926,920,915,906,899,893,881,869,860,847,839,830,822,816,812,809,808,800,798,794,790,788,785,785,784,786,789,792,795,797,795,792,783,780,779,777,780,780,784,784,789,789,793,790,787,785,782,780,780,783,787,785,786,785,787,786,786,786,783,782,784,783,791,790,787,789,789,786,784,779,777,775,775,778,776,777,782,780,779,778,775,773,773,772,768,768,764,765,772,776,777,775,772,769,769,764,763,759,761,765,765,768,767,764,766,763,762,765,765,765,768,767,768,774,776,778,781,782,781,777,781,780,783,784,788,788,791,794,793,793,791,793,794,792,795,795,793,791,797,794,788,784,780,780,777,776,775,772,769,760,759,754,751,745,744,749,747,748,753,755,755,758,757,755,756,752,751,749,747,746,752,760,776,803,841,892,957,1025,1107,1194,1285,1364,1430,1469,1483,1458,1389,1269,1141,1013,885,757,647,674,728,777,810,820,812,793,773,756,748,745,744,747,751,755,757,758,757,754,752,751,749,750,751,754,754,757,761,765,767,768,767,771,767,765,766,765,768,769,779,783,786,785,785,789,793,796,797,800,808,810,815,818,826,829,830,835,838,846,852,856,865,872,883,891,895,900,898,898,899,901,901,905,906,910,908,910,905,902,892,882,867,855,844,831,822,813,808,800,793,786,778,770,763,757,752,746,743,744,744,744,739,739,734,732,728,727,728,730,731,731,733,734,734,738,737,735,733,731,732,733,734,735,739,744,745,746,744,741,738,736,737,738,739,736,741,749,753,754,754,751,749,744,739,739,737,735,739,741,742,743,740,737,733,732,732,729,733,734,736,740,742,741,736,731,726,728,725,725,730,732,734,735,734,729,728,723,725,725,724,728,732,731,734,736,736,734,732,730,729,729,728,729,733,738,742,744,750,750,746,746,746,745,746,745,744,744,746,747,749,749,750,750,749,748,741,740,740,739,736,741,739,735,731,730,721,715,711,708,707,703,707,708,711,713,713,710,706,708,706,703,707,705,709,714,715,718,721,732,753,780,821,874,935,1003,1080,1154,1225,1279,1303,1292,1236,1133,1005,877,749,621,578,599,645,695,729,743,743,730,715,705,698,699,705,709,713,713,715,712,709,707,703,700,705,712,715,718,718,719,716,719,718,717,716,722,726,726,728,732,734,734,737,737,737,738,739,742,746,748,752,758,759,763,762,765,767,771,778,782,785,793,799,802,804,808,808,807,808,814,818,825,831,838,840,845,848,847,842,838,832,828,826,819,813,813,813,811,803,796,787,777,768,760,753,744,744,743,740,738,734,728,725,721,720,718,718,724,727,725,722,719,717,714,712,705,707,712,709,712,714,716,717,719,721,721,720,718,718,715,716,715,716,721,724,727,726,726,726,724,727,726,724,724,726,729,728,732,731,730,728,725,724,725,726,728,732,732,729,730,726,726,724,720,719,717,715,715,718,721,721,723,725,727,727,725,722,721,723,721,725,724,728,728,727,726,726,725,722,721,723,725,728,731,733,738,736,731,730,727,733,737,743,753,756,759,758,761,761,761,759,760,761,762,765,767,772,780,781,784,787,785,782,779,773,771,767,762,765,766,764,766,767,767,763,755,747,736,732,731,731,736,746,750,752,754,751,751,749,749,748,746,749,754,761,769,782,797,811,831,853,882,914,950,996,1044,1098,1149,1189,1206,1190,1130,1024,896,773,690,658,672,711,757,786,803,804,794,782,773,767,764,767,771,776,779,778,777,775,770,770,770,770,773,776,780,782,784,783,787,790,788,789,792,793,793,795,796,799,808,806,805,807,803,803,802,805,810,811,817,823,827,833,834,834,831,832,839,841,849,856,864,870,875,879,883,887,887,886,890,894,896,902,908,905,907,913,918,919,920,918,917,914,909,905,907,903,896,888,881,871,869,859,853,843,837,834,833,830,827,818,814,808,806,802,801,800,803,804,804,805,804,803,802,801,799,799,801,799,799,799,803,802,805,807,811,809,802,798,794,791,792,798,802,805,811,810,810,807,806,807,806,805,804,805,806,811,816,814,816,817,816,812,814,812,814,814,813,811,814,817,816,816,814,811,812,812,812,812,812,810,814,811,813,812,812,811,808,806,807,807,809,815,817,818,819,818,816,813,809,809,812,812,812,815,818,820,820,818,813,813,815,817,816,817,817,821,821,826,825,828,830,832,834,838,839,845,847,846,848,849,849,850,853,853,856,859,862,864,862,861,861,858,857,858,853,853,852,849,846,844,843,841,841,842,840,835,831,826,821,816,818,824,825,832,832,828,826,827,825,825,826,825,827,828,830,838,855,874,904,944,990,1046,1111,1177,1251,1319,1379,1419,1435,1411,1332,1204,1076,948,820,729,736,782,836,878,901,900,885,868,854,839,831,829,830,836,841,841,844,843,840,842,837,839,842,840,839,845,847,847,853,857,856,859,859,859,859,858,859,864,869,870,871,872,877,881,880,883,883,886,889,893,900,902,907,910,915,918,924,926,923,923,924,930,937,945,953,960,967,972,972,979,980,979,982,984,988,989,993,989,986,980,973,967,960,952,943,935,925,920,913,903,899,891,884,879,874,868,864,862,862,862,861,861,859,858,856,852,845,844,842,842,846,847,849,849,851,851,850,846,844,843,845,845,849,851,853,854,852,856,849,846,846,844,844,847,852,853,855,858,858,857,853,851,850,846,849,847,853,855,857,856,858,855,850,848,845,839,838,839,842,845,849,844,847,848,844,841,842,839,845,847,852,849,851,852,855,855,854,848,845,836,831,828,830,833,841,846,847,848,844,841,839,840,837,840,844,843,849,851,854,852,850,850,852,854,858,865,867,867,870,871,873,869,870,871,871,876,879,881,878,878,880,880,879,879,877,874,870,866,861,850,846,842,837,837,837,836,835,833,832,832,832,835,837,840,841,839,838,835,831,828,826,822,823,829,839,851,873,900,940,988,1051,1118,1190,1271,1345,1410,1457,1476,1448,1357,1229,1101,973,845,735,751,797,849,887,903,902,888,870,853,840,838,842,843,847,846,851,850,851,849,847,846,843,843,840,844,849,851,861,861,863,862,862,862,859,860,859,859,863,862,869,877,881,888,891,890,891,887,892,891,893,897,905,908,921,922,924,924,923,920,926,933,941,950,959,970,970,974,976,979,981,982,987,994,993,997,998,1001,1003,1004,1003,996,991,986,976,966,959,950,940,933,927,925,917,907,902,893,886,883,876,872,870,861,861,856,856,857,857,857,857,858,856,855,856,852,850,849,848,846,849,848,846,848,847,849,852,855,860,862,861,860,849,846,849,849,849,848,851,852,856,859,858,858,855,852,850,850,849,849,849,850,851,850,850,850,847,846,844,841,844,840,842,842,844,839,840,840,841,838,839,835,833,836,836,838,841,844,843,842,841,842,839,836,833,829,830,831,834,836,832,831,828,825,825,824,825,828,827,831,833,834,834,834,832,836,839,844,848,851,855,856,859,857,856,856,857,857,856,860,863,867,868,869,866,868,864,864,856,857,855,854,848,847,844,839,837,832,827,819,819,811,810,807,809,812,812,812,813,815,815,814,811,811,810,808,809,810,809,813,818,825,836,855,883,924,982,1047,1118,1194,1278,1353,1422,1474,1503,1498,1458,1369,1241,1113,985,857,729,727,773,829,873,887,883,864,844,827,819,816,820,822,821,821,818,818,814,812,813,811,813,815,820,823,825,825,825,826,826,827,827,827,826,825,829,832,834,837,836,836,838,837,837,838,838,845,849,853,856,860,860,860,863,868,871,871,873,882,885,891,899,903,904,910,912,920,923,929,933,938,946,955,965,973,975,974,974,972,970,977,977,975,982,981,981,979,975,969,961,950,942,934,920,910,901,892,887,880,871,861,854,846,840,834,830,829,827,825,822,823,817,816,814,812,809,805,808,804,804,804,807,809,815,813,815,812,811,807,808,808,810,814,814,817,816,818,815,814,812,810,811,812,815,818,819,820,819,816,813,812,808,808,805,807,809,809,810,812,812,812,810,807,804,800,801,802,803,804,807,811,811,810,807,804,800,797,796,798,798,800,803,803,801,795,797,794,796,792,794,795,797,797,797,798,802,799,796,792,788,787,783,786,790,790,795,800,805,806,807,807,805,807,809,805,809,811,813,818,818,819,819,821,821,823,824,829,832,832,827,824,823,819,815,813,810,805,802,800,800,800,798,796,787,784,779,774,773,770,767,768,767,773,774,777,779,782,780,777,775,774,771,777,786,804,831,877,946,1023,1113,1205,1298,1382,1446,1480,1481,1440,1354,1226,1098,970,842,714,670,720,780,829,854,851,833,812,791,777,769,766,767,765,768,767,768,770,771,774,775,778,776,777,775,775,775,775,777,778,782,785,786,787,787,787,787,786,791,793,795,797,802,807,810,813,816,813,812,816,815,819,822,829,835,844,855,856,866,868,874,877,883,887,895,900,907,909,918,922,923,926,930,930,932,933,933,935,938,937,931,927,917,909,900,889,880,870,861,854,847,845,835,826,813,808,795,790,783,776,771,768,771,768,768,766,763,759,758,756,753,750,749,750,749,755,752,752,752,750,750,749,749,749,748,752,754,755,758,756,756,754,750,749,749,748,750,751,755,760,757,759,756,754,750,747,744,745,744,746,747,748,748,748,746,744,745,744,741,740,742,741,741,742,741,738,739,735,733,732,730,729,729,731,733,735,736,735,731,731,730,728,728,728,729,728,732,732,730,731,733,732,730,731,730,729,732,735,739,740,746,746,746,745,745,745,744,743,743,745,747,751,755,759,763,763,762,762,759,757,753,752,750,749,747,748,747,746,739,738,732,725,719,711,708,710,712,711,712,711,715,714,714,715,718,717,719,721,723,723,725,724,736,753,788,842,911,1003,1102,1207,1306,1386,1438,1449,1408,1303,1175,1047,919,791,663,602,657,719,766,783,777,758,738,722,714,714,713,721,722,723,723,724,721,721,725,724,728,728,727,733,732,735,736,734,736,737,739,739,747,750,753,754,756,757,757,758,762,762,766,766,771,777,781,789,795,796,800,802,806,807,812,815,821,829,837,845,852,857,863,866,870,869,871,868,875,879,881,884,890,890,889,881,877,870,861,854,848,841,831,830,822,814,805,792,782,772,764,756,751,752,750,751,754,750,749,747,745,741,741,737,738,734,738,742,741,739,741,739,736,737,737,740,745,749,752,758,756,756,757,751,754,750,747,746,746,748,752,757,762,763,763,758,757,755,750,749,748,753,756,762,755,758,757,751,749,747,748,748,746,748,748,753,753,750,751,746,745,741,739,740,745,749,753,756,754
