849,849,847,844,845,847,846,849,851,853,851,851,851,849,851,851,847,850,850,853,854,853,855,858,856,856,856,856,855,856,856,860,862,860,863,863,862,862,861,860,860,863,863,863,864,866,868,868,868,866,863,865,864,862,862,867,868,870,872,871,871,871,868,870,869,870,871,874,875,875,877,875,876,874,874,872,872,871,871,872,874,875,877,876,874,872,868,867,864,863,863,864,863,862,862,860,858,852,851,851,848,849,845,847,845,847,847,846,845,840,839,836,835,836,838,839,840,839,839,840,840,839,837,835,834,835,834,835,835,837,837,837,837,832,831,828,826,826,824,828,829,831,831,830,829,828,828,826,825,824,822,825,825,827,827,828,826,824,824,822,820,819,822,822,822,824,826,825,825,826,824,822,822,822,826,826,826,828,829,829,828,826,827,826,826,823,826,826,829,831,832,832,830,827,824,823,821,823,824,828,830,831,831,831,832,829,828,828,827,827,828,829,830,833,834,833,832,834,831,831,827,826,831,833,833,835,836,837,835,833,833,831,831,833,831,833,834,836,837,836,836,835,833,832,833,830,832,836,834,837,839,841,841,837,839,835,837,834,832,832,833,839,839,842,844,847,848,849,850,846,846,847,850,851,854,855,852,852,851,848,847,847,850,850,851,853,853,852,850,848,847,844,843,841,839,841,840,844,843,847,848,847,846,845,846,847,846,848,849,848,851,851,853,855,857,865,880,900,922,949,971,987,1001,1008,1009,1014,1022,1031,1033,1035,1027,1016,1000,981,959,936,915,896,880,868,862,856,855,853,855,860,861,863,863,860,862,861,859,859,860,860,862,865,868,867,865,866,867,866,864,866,864,864,866,869,872,872,871,873,869,867,869,868,870,870,870,873,876,876,878,874,873,873,873,871,872,874,873,876,878,877,877,879,879,876,874,876,875,876,879,881,884,883,885,879,876,878,881,879,883,883,883,887,888,889,887,887,886,884,882,881,882,882,881,882,882,881,879,876,873,871,870,868,866,865,864,864,865,862,863,860,858,854,853,849,848,848,851,852,852,853,852,850,850,849,846,846,845,846,845,847,848,846,847,846,845,841,839,839,839,840,841,841,844,842,842,842,839,839,836,834,835,832,834,835,836,835,832,830,832,829,829,829,830,830,828,828,829,830,830,831,829,829,827,827,829,832,833,833,835,834,834,835,833,832,830,831,829,830,831,832,833,834,833,835,832,833,829,831,833,831,832,831,836,835,836,836,832,830,830,829,830,832,834,836,839,838,838,838,837,833,836,832,834,832,834,837,838,840,839,838,837,836,837,835,835,837,837,839,841,841,837,834,835,833,836,833,836,838,836,839,837,837,837,838,837,836,835,837,835,838,838,840,843,842,842,839,841,840,838,838,839,839,842,846,848,847,849,849,851,851,851,846,848,849,850,852,853,855,855,852,849,848,846,848,850,851,854,854,854,853,848,846,846,844,842,841,840,842,844,843,846,844,842,843,842,843,841,843,843,844,845,847,850,849,857,863,878,893,915,935,954,972,985,995,1002,1009,1020,1022,1023,1017,1006,994,980,961,944,925,910,896,887,876,868,860,854,849,848,847,847,849,854,851,852,853,851,850,847,850,849,853,855,857,860,860,860,858,858,858,855,856,856,857,859,862,860,862,861,860,859,859,859,855,858,861,861,865,865,866,866,864,863,861,864,863,862,863,864,864,866,867,866,863,865,864,863,864,859,865,868,870,874,873,872,871,869,871,869,868,869,871,873,876,874,875,873,875,869,870,868,867,865,866,866,865,868,865,861,860,859,855,849,849,847,849,847,848,847,844,842,840,837,835,834,831,830,830,830,832,832,833,834,832,830,831,827,827,826,826,825,826,827,829,828,827,824,819,819,815,817,817,819,816,820,819,819,818,817,817,814,813,812,813,815,815,816,817,816,814,813,811,811,811,811,813,816,816,818,818,817,814,813,815,814,813,813,816,819,818,823,823,821,819,821,819,820,818,817,821,823,822,826,824,827,826,824,820,821,824,822,826,827,828,830,831,830,830,829,829,829,829,827,827,829,830,832,833,831,834,832,830,830,829,830,828,832,830,832,833,834,832,831,832,831,828,831,831,835,833,837,839,839,839,837,835,837,835,837,838,838,840,841,840,841,842,839,838,838,835,836,837,840,841,845,845,844,845,842,845,843,845,849,850,854,854,855,855,853,850,851,853,853,855,856,859,860,860,861,861,861,861,862,860,859,857,855,857,860,860,861,859,860,857,853,851,849,850,848,851,853,856,857,858,857,858,855,855,854,854,856,860,864,871,883,896,917,941,966,987,1008,1022,1030,1032,1039,1047,1056,1062,1057,1051,1042,1029,1015,1001,985,965,948,929,916,902,890,882,873,867,864,861,863,865,868,870,872,871,871,870,869,868,868,867,865,870,871,867,871,872,873,874,873,873,873,872,871,873,876,878,880,882,880,879,878,876,876,876,876,878,879,881,881,882,883,883,885,883,880,879,879,881,883,885,886,886,887,884,884,883,882,884,883,886,888,891,892,891,890,888,888,889,887,885,885,884,887,889,890,888,890,892,889,887,886,884,884,884,883,882,884,883,881,880,876,874,870,867,865,865,864,861,864,864,863,861,857,853,849,847,845,846,847,847,850,848,848,847,844,843,842,843,841,843,845,847,849,846,845,844,841,841,839,839,839,837,839,839,841,839,840,841,839,837,836,835,833,834,835,839,838,838,841,839,837,836,834,837,833,835,837,835,838,840,840,839,839,837,835,835,836,837,838,840,842,842,842,842,839,841,837,836,837,839,839,842,845,844,844,842,841,839,840,837,840,840,842,844,846,843,843,844,843,839,838,837,838,839,843,843,844,845,845,845,844,843,843,843,842,844,845,848,848,848,846,847,846,844,845,844,845,843,846,848,850,849,847,846,846,844,843,844,843,845,847,847,848,850,849,847,847,842,843,840,842,843,843,845,848,850,853,854,855,857,856,853,854,853,854,856,859,860,860,859,856,852,852,852,853,853,853,856,860,858,856,855,854,848,847,844,845,846,847,845,847,847,849,845,843,845,845,843,843,846,847,849,853,857,857,860,861,865,872,886,906,930,958,984,1006,1023,1034,1039,1045,1049,1054,1052,1043,1025,1010,990,969,947,923,907,891,883,874,865,861,860,859,859,860,864,864,864,864,864,861,862,859,861,860,864,866,870,868,868,868,867,867,866,867,868,871,871,873,870,873,873,873,873,872,870,872,875,877,879,880,880,878,879,881,878,879,876,873,877,878,880,882,882,883,883,883,882,881,880,880,882,881,884,888,889,888,889,888,889,887,886,888,886,888,892,892,893,892,889,887,886,885,885,884,885,884,883,884,883,884,883,879,878,875,873,870,869,868,867,869,865,866,861,858,856,855,851,849,854,854,855,856,854,853,853,853,848,847,847,847,848,848,850,851,855,852,851,849,848,845,847,844,845,844,845,846,847,846,845,841,842,838,836,835,836,836,838,839,838,840,838,835,834,834,833,832,831,831,833,833,834,836,837,836,833,834,830,832,831,830,835,835,838,836,835,833,831,829,829,830,830,831,835,837,837,837,837,837,834,833,831,830,834,834,833,834,835,833,833,834,835,831,833,834,834,836,838,840,839,840,838,838,837,836,835,836,835,839,839,843,844,843,840,839,837,837,835,837,840,842,842,844,844,846,844,844,845,845,843,841,843,840,844,846,847,847,848,844,844,840,842,842,842,844,845,847,848,849,849,849,852,852,853,853,855,855,855,858,858,860,858,857,857,854,853,855,854,855,858,864,864,862,861,857,856,852,851,850,848,847,848,848,849,853,851,850,848,848,849,849,852,853,855,855,859,862,867,878,893,916,942,970,996,1017,1035,1045,1053,1051,1056,1057,1054,1046,1032,1018,1005,991,977,960,941,919,903,889,879,869,863,860,857,857,858,862,864,864,865,863,863,861,859,863,862,863,865,867,869,870,869,867,867,866,865,867,867,869,872,873,873,873,874,870,872,871,869,870,872,873,874,876,874,874,874,874,873,871,871,871,872,875,875,881,880,880,878,878,880,877,878,877,878,879,880,882,883,884,882,883,883,881,877,877,877,882,881,881,881,881,879,877,875,870,869,870,868,869,869,870,868,867,865,859,857,854,852,851,850,851,848,850,850,849,847,845,842,844,844,844,844,844,843,847,849,849,845,846,842,843,841,840,837,837,841,841,843,841,842,840,838,836,835,834,835,836,837,838,836,836,837,835,834,831,828,829,830,829,831,833,834,834,831,830,828,826,825,826,825,827,829,830,832,832,831,829,828,827,827,827,827,827,829,831,831,832,831,830,830,828,827,827,827,831,834,834,837,836,834,831,830,830,830,830,832,833,834,835,836,836,836,834,837,834,835,837,835,837,837,837,839,839,840,840,836,835,833,835,836,840,840,842,841,842,843,840,839,839,838,838,837,839,840,840,842,842,840,841,839,840,838,838,839,842,840,845,844,843,843,842,842,839,837,839,840,843,846,845,847,849,850,850,852,851,852,853,852,854,856,858,858,858,853,853,853,853,853,854,854,854,859,861,863,863,859,860,859,854,851,850,850,851,850,851,851,849,849,846,847,845,844,844,847,849,851,854,855,856,857,857,859,863,871,888,909,938,965,993,1017,1033,1042,1045,1050,1055,1059,1056,1053,1045,1031,1017,1001,988,967,946,928,908,893,882,873,867,864,861,860,861,859,858,857,859,859,857,859,861,863,863,866,868,867,865,863,861,861,863,864,867,870,870,870,872,871,871,870,869,869,867,868,869,870,871,874,873,872,872,872,871,872,872,873,875,876,879,879,877,878,875,876,873,873,873,874,876,877,879,880,880,880,879,880,876,876,876,877,880,881,882,884,883,885,883,882,880,879,879,878,878,880,880,879,876,876,872,872,870,865,866,865,864,864,864,862,861,858,856,854,851,849,846,846,844,845,847,847,847,845,843,842,842,837,840,841,841,843,844,844,844,843,841,841,838,836,837,835,837,839,841,841,842,841,838,836,835,835,833,834,833,834,835,835,834,835,833,832,827,826,826,826,829,830,830,831,829,828,829,824,825,825,825,827,828,831,830,832,832,830,831,828,827,827,828,827,828,831,833,833,834,835,834,832,830,830,829,831,834,834,837,835,836,836,836,835,834,829,833,837,836,839,839,839,839,837,836,837,836,835,838,837,840,841,840,843,839,840,839,838,838,837,836,837,838,839,841,844,842,843,841,840,839,836,835,836,839,842,844,846,844,843,844,843,840,841,842,842,841,843,845,846,844,845,844,845,843,846,847,851,855,857,861,859,860,859,854,855,856,854,855,853,856,857,856,860,859,856,860,860,861,859,857,856,856,859,859,858,857,853,850,845,842,845,845,846,848,850,850,852,853,854,855,852,850,850,853,854,858,863,870,881,894,913,930,951,974,988,1003,1015,1026,1036,1047,1059,1059,1057,1044,1024,1003,979,955,934,913,897,887,881,873,869,863,860,859,859,861,862,867,868,867,869,868,867,866,864,863,863,864,863,868,869,871,873,874,872,874,872,872,870,872,873,875,876,878,879,879,878,880,877,873,873,875,876,878,880,881,882,884,882,881,878,879,878,878,879,882,882,883,885,884,884,883,883,881,882,883,882,884,887,887,889,890,889,889,888,886,885,884,885,886,889,890,890,890,887,887,883,881,880,878,879,880,878,877,875,872,871,870,866,866,863,861,860,860,861,860,860,857,855,853,851,849,849,847,846,848,849,852,851,852,852,851,850,847,846,846,845,846,848,847,848,849,846,845,842,839,838,839,838,838,840,840,842,843,840,837,836,832,833,830,830,830,832,831,832,832,833,834,830,830,832,827,826,827,827,830,831,832,835,834,833,834,830,831,831,835,836,837,840,838,838,838,837,836,838,836,835,837,840,841,843,846,843,843,839,838,839,840,840,841,843,845,847,847,845,844,844,843,841,839,839,843,844,847,849,850,851,848,847,846,843,844,845,848,848,850,852,852,849,850,847,848,847,846,848,850,848,852,853,850,852,851,850,846,847,846,844,849,850,851,852,854,852,854,852,850,849,848,848,852,850,853,854,856,858,859,859,862,863,863,864,864,867,869,868,867,867,866,864,864,863,863,863,867,867,871,872,872,873,870,865,863,862,859,857,858,857,855,856,856,856,855,855,853,851,850,853,856,856,859,861,863,863,865,864,866,869,877,891,910,933,959,982,1000,1011,1019,1026,1032,1042,1051,1057,1054,1044,1032,1012,992,971,950,927,910,897,886,881,876,871,867,866,863,865,863,860,862,863,862,864,865,866,866,865,867,866,864,864,864,863,863,861,866,870,869,869,870,869,867,869,870,868,869,869,869,871,872,875,874,876,873,872,872,872,873,873,873,877,877,881,879,879,879,875,874,874,873,877,877,879,880,881,880,879,880,879,879,880,881,882,883,885,886,888,888,886,885,881,880,882,881,882,885,885,885,883,885,881,879,877,875,875,875,872,873,873,871,872,870,868,866,861,861,857,857,857,857,855,857,858,851,854,850,848,848,847,846,846,846,846,845,851,848,847,848,845,844,841,841,842,843,845,844,847,845,845,843,842,840,837,836,837,837,836,838,839,838,835,836,834,832,833,831,831,829,831,833,836,835,834,831,829,831,828,828,827,830,828,830,832,831,833,832,830,832,829,829,830,832,831,833,832,835,835,835,835,835,833,832,832,833,834,836,838,837,838,838,838,836,832,832,833,832,835,835,838,838,839,839,839,837,836,834,834,834,836,841,843,843,843,842,839,839,838,838,838,839,841,844,843,844,844,842,841,839,840,839,839,840,842,843,846,845,844,843,842,842,839,837,838,840,842,841,842,842,844,841,839,841,840,839,839,841,842,844,844,845,848,847,847,848,845,847,852,855,858,858,860,858,856,854,856,854,854,853,852,854,856,856,858,855,859,857,858,858,857,857,855,855,854,855,855,852,849,846,844,843,841,841,844,845,845,847,848,847,847,844,845,845,847,848,850,856,861,872,886,903,923,945,965,981,994,1002,1011,1017,1026,1038,1045,1048,1043,1031,1014,994,973,952,932,915,899,888,882,875,869,858,854,852,852,852,855,857,859,862,862,863,861,859,858,858,859,860,863,865,865,868,869,867,863,862,861,863,864,865,865,867,867,870,871,872,871,873,867,868,870,869,868,870,873,873,878,876,876,876,875,873,874,872,872,872,876,877,880,881,880,879,879,878,875,875,878,880,881,882,886,887,886,886,885,882,882,883,882,884,884,885,886,885,885,883,885,883,882,880,879,878,877,877,879,877,876,875,871,867,865,860,860,858,859,858,860,856,855,854,851,847,845,844,843,846,847,848,849,846,847,846,842,841,839,835,837,839,840,838,841,841,841,839,837,834,835,831,832,830,830,830,832,833,834,832,830,828,827,825,825,828,824,824,828,826,825,824,824,823,823,823,823,823,825,827,829,828,827,827,823,821,821,823,822,826,825,828,830,826,828,827,829,827,827,825,826,827,826,828,831,831,831,830,828,826,824,823,826,827,827,829,833,832,831,832,831,828,829,827,827,828,828,829,833,834,832,830,831,832,829,829,830,831,833,833,834,835,832,832,833,833,833,832,832,833,835,835,834,836,835,834,832,831,828,829,829,832,834,835,838,838,837,837,834,833,833,833,834,834,837,837,840,840,840,841,840,840,841,841,842,845,848,850,851,851,848,849,845,849,848,846,846,847,848,845,850,848,850,849,847,848,847,845,846,844,842,844,847,844,841,838,838,837,837,836,837,838,841,838,845,844,844,844,844,846,842,842,847,853,861,875,896,918,942,965,983,996,1001,1007,1011,1019,1030,1033,1035,1026,1009,993,974,955,934,916,900,888,878,873,867,863,857,853,849,847,848,847,848,851,851,855,857,857,855,855,852,851,848,851,852,854,856,858,861,862,861,861,860,860,858,857,856,860,860,863,865,865,868,866,865,863,861,862,864,865,864,866,871,872,870,870,868,868,868,867,868,867,869,872,875,875,875,875,875,871,870,870,872,870,875,874,875,877,876,877,876,876,874,874,876,877,877,879,879,881,878,876,878,873,870,871,871,871,874,874,873,873,871,869,867,864,861,859,860,859,859,858,856,854,856,854,853,851,851,849,846,846,847,847,849,848,849,847,846,846,845,844,844,845,846,842,846,843,842,841,837,837,837,836,837,837,839,841,843,839,836,835,834,831,831,830,830,831,832,832,835,834,835,834,832,831,830,826,826,825,824,826,828
