1145,1165,1176,1188,1192,1195,1182,1168,1142,1105,1048,983,916,870,845,841,853,872,880,879,874,865,848,842,831,826,823,823,827,830,835,831,832,831,832,837,838,835,833,830,830,838,842,841,837,835,833,835,838,840,837,836,833,841,843,841,841,841,839,841,842,841,840,835,839,845,849,850,849,845,845,850,848,849,842,841,844,849,854,857,857,857,860,863,862,858,854,852,852,857,859,858,859,857,860,865,866,864,859,854,854,859,864,864,864,859,863,867,865,866,860,856,854,854,856,858,861,851,850,850,854,856,855,853,854,854,857,861,861,861,858,856,859,862,860,852,848,845,848,854,854,855,851,850,843,844,846,841,842,844,853,855,855,848,850,846,846,849,848,842,842,845,850,853,851,849,853,854,857,858,854,853,850,856,859,863,865,863,863,869,876,878,875,878,882,891,900,903,905,900,899,900,902,900,896,893,891,893,894,895,893,891,887,884,885,879,870,865,861,859,865,867,866,864,856,858,855,853,850,850,850,853,857,859,857,855,851,847,844,840,832,817,810,812,830,853,885,922,965,1009,1051,1087,1118,1148,1172,1185,1195,1200,1194,1183,1169,1152,1121,1078,1013,946,890,861,856,863,875,887,892,892,885,875,861,848,840,839,842,845,848,844,843,841,845,848,847,843,845,848,852,855,855,850,847,849,850,847,848,847,843,846,851,854,858,853,851,854,853,858,855,854,848,853,857,859,859,856,856,857,859,861,859,856,860,861,866,871,869,869,868,867,867,866,868,867,868,868,870,875,879,876,873,872,873,874,874,873,868,868,874,876,881,880,876,870,869,869,868,870,867,867,866,870,875,875,871,867,866,866,870,869,869,867,865,868,871,874,870,865,863,862,862,862,858,862,858,863,862,862,860,856,853,854,854,854,850,851,850,851,853,855,856,851,846,843,842,849,849,851,850,850,853,856,855,854,851,850,851,852,856,856,856,855,859,858,859,858,857,855,856,857,863,866,868,864,869,871,874,876,876,876,878,885,891,894,897,897,900,903,904,903,897,894,889,894,894,894,887,885,883,888,888,885,877,866,860,857,855,853,850,849,847,851,852,851,842,837,835,839,842,843,842,842,842,844,844,841,832,825,817,807,806,810,822,839,866,902,945,987,1021,1058,1091,1125,1152,1172,1183,1184,1178,1169,1159,1143,1113,1067,1008,942,889,859,844,838,850,864,873,873,866,852,840,835,831,828,824,824,828,829,830,830,829,828,825,827,829,830,832,831,832,832,837,837,834,831,825,829,832,834,836,834,832,836,838,836,837,835,829,826,829,833,836,837,832,838,839,841,843,844,838,839,835,843,848,849,849,849,846,848,850,852,852,850,848,851,853,856,856,856,851,852,853,857,855,852,851,849,854,860,857,857,854,852,851,851,854,850,847,850,852,858,856,853,850,849,847,851,850,845,844,841,842,848,852,849,844,843,842,840,838,841,838,838,840,843,846,843,839,834,834,836,835,833,830,826,828,831,834,832,830,822,824,821,824,821,817,819,822,824,826,826,825,824,822,824,826,825,826,820,823,824,831,834,831,829,829,833,836,836,835,837,838,843,847,851,850,851,853,856,863,867,869,868,869,870,874,882,882,879,872,869,869,867,870,866,862,862,861,864,865,859,853,845,838,833,834,832,831,826,824,825,827,825,824,820,819,818,819,824,822,820,819,818,821,822,819,812,803,793,783,783,783,795,813,844,884,929,972,1012,1051,1086,1122,1151,1168,1174,1170,1165,1152,1136,1108,1069,1012,951,894,852,832,824,832,841,855,859,855,840,826,817,812,809,809,807,808,811,817,815,811,810,806,809,813,818,817,817,814,816,816,820,817,813,811,811,813,818,821,822,820,820,821,824,824,822,820,817,818,822,824,825,826,825,828,829,829,825,826,824,830,833,829,833,835,835,840,841,838,833,832,832,835,841,841,840,838,838,840,843,842,837,836,833,838,842,844,843,842,842,842,843,842,836,833,833,838,840,840,840,838,839,838,840,837,835,831,830,832,834,836,834,836,836,834,838,835,832,828,827,830,831,834,833,831,828,827,830,827,825,821,821,821,819,820,817,816,821,819,820,817,813,810,814,817,815,814,817,819,822,826,824,821,814,816,817,821,823,822,824,824,829,834,836,832,829,830,830,834,839,840,840,843,852,856,860,864,862,864,867,871,873,873,873,868,873,874,874,870,867,860,857,858,860,861,855,849,847,842,837,834,827,821,819,821,822,822,817,815,817,821,822,817,815,812,812,814,818,818,817,810,804,799,791,782,779,786,798,823,854,899,939,983,1022,1054,1091,1122,1147,1160,1165,1165,1164,1158,1150,1132,1113,1072,1016,952,889,845,821,820,831,842,854,854,846,840,829,824,812,804,801,801,807,812,812,810,811,810,811,818,814,812,813,815,813,819,817,818,818,821,823,825,819,816,810,812,817,816,816,813,818,819,821,820,817,818,818,818,821,821,826,823,825,829,831,831,830,829,827,828,833,838,838,834,837,832,833,835,832,830,832,833,837,841,842,843,842,844,843,847,845,840,839,839,839,846,847,844,845,845,844,843,840,838,838,841,840,842,844,840,842,843,842,843,836,833,831,831,834,835,835,832,832,835,839,839,834,834,831,829,831,836,835,830,827,823,824,824,821,820,817,818,821,824,824,821,821,819,821,822,820,819,821,821,824,828,827,825,824,827,828,829,828,822,826,824,829,835,835,837,838,841,840,844,844,844,844,851,857,864,869,872,875,878,883,882,877,872,873,874,876,876,873,871,872,869,870,864,859,852,846,843,840,840,837,832,832,834,833,834,829,826,823,822,825,827,828,829,834,835,831,827,815,807,799,795,787,791,803,828,866,910,955,996,1034,1069,1108,1142,1164,1181,1187,1190,1189,1181,1161,1127,1077,1014,948,894,855,839,838,850,862,871,868,854,843,834,824,818,811,809,810,813,820,821,820,818,819,819,822,824,822,817,817,822,827,828,827,824,815,818,818,818,821,823,822,825,828,828,826,825,824,822,823,826,827,826,829,829,832,835,837,831,832,829,831,834,836,835,833,837,841,846,844,840,837,834,837,839,835,841,844,846,848,851,852,851,846,847,847,847,843,845,847,853,852,853,846,846,846,844,844,846,842,844,842,846,848,849,847,842,839,837,842,845,842,841,842,846,848,848,845,843,838,837,840,842,841,840,838,841,844,844,840,835,832,831,831,827,826,825,828,831,835,835,830,831,824,831,835,831,826,825,828,831,837,838,835,834,833,836,838,836,836,839,844,847,849,846,851,860,863,868,869,871,867,869,877,884,887,884,880,878,878,883,883,877,869,868,870,869,871,869,863,859,859,858,850,845,842,839,838,841,841,839,834,829,829,831,832,835,833,834,833,838,839,836,826,819,814,806,798,793,789,796,819,854,892,933,976,1011,1043,1080,1108,1136,1155,1165,1169,1173,1169,1157,1138,1103,1053,994,929,882,848,834,837,850,867,872,872,859,850,844,835,828,822,818,819,822,829,830,828,824,820,823,825,828,829,828,825,829,832,836,835,832,824,827,825,822,826,826,825,829,834,838,837,835,834,827,825,831,834,835,833,830,833,835,838,840,835,830,829,836,834,839,839,840,837,840,844,847,843,841,839,839,845,851,851,852,847,848,849,851,849,848,847,845,849,853,853,853,854,853,853,857,858,855,849,847,847,847,852,848,847,846,848,850,851,849,843,842,841,844,847,847,847,848,847,850,850,850,841,839,840,844,847,847,844,844,847,843,845,844,839,835,834,839,837,837,832,834,835,838,841,838,835,828,830,833,839,841,843,841,839,840,842,835,840,838,837,838,838,843,846,845,844,842,841,841,844,845,844,846,848,853,858,862,860,855,853,858,863,871,875,875,880,886,893,894,892,891,883,885,885,888,888,886,882,881,880,882,884,876,871,865,861,858,852,846,847,845,849,849,846,840,838,836,838,837,835,834,833,836,838,842,843,841,834,827,823,817,812,806,798,801,819,849,882,921,961,999,1038,1076,1108,1136,1156,1169,1175,1176,1172,1160,1147,1128,1105,1067,1014,952,896,854,837,838,849,862,865,865,857,852,846,841,836,830,826,827,830,830,830,824,820,822,824,822,827,829,831,834,835,832,828,823,824,823,825,824,829,829,830,837,836,835,831,829,829,830,833,833,834,832,838,840,842,838,837,836,838,841,844,843,842,840,843,847,851,848,844,842,845,846,849,846,847,845,847,853,853,854,848,847,846,847,850,852,848,846,850,852,853,854,850,846,844,847,847,846,847,845,847,847,849,846,837,839,839,837,843,842,841,840,842,843,847,845,842,838,836,838,841,842,838,836,834,837,839,836,833,826,823,823,822,828,826,821,822,823,826,827,823,821,817,817,817,821,820,820,816,821,825,826,824,823,819,821,822,828,828,830,829,829,832,828,830,830,832,832,837,838,842,844,847,852,860,865,867,865,868,874,874,874,876,873,870,873,878,877,869,864,858,858,860,860,860,850,843,844,838,837,833,827,823,825,826,827,825,823,820,824,825,825,823,815,814,814,820,820,818,813,810,805,796,789,784,790,809,837,874,917,957,991,1027,1065,1100,1131,1147,1158,1161,1161,1151,1142,1124,1100,1063,1005,943,880,839,817,815,826,842,849,844,843,833,829,820,815,808,805,804,807,809,812,811,810,812,812,813,817,818,810,810,810,812,814,816,812,811,814,816,820,817,815,813,811,814,816,819,818,818,819,819,819,823,819,817,815,819,823,828,830,829,828,828,829,830,831,826,827,827,830,834,838,837,837,834,834,836,838,832,830,834,839,839,839,835,837,839,845,840,842,836,834,836,840,843,843,840,839,838,839,838,837,833,830,833,837,837,839,836,836,837,839,836,832,833,831,830,832,833,834,833,832,828,834,832,829,825,820,822,824,828,825,826,822,820,820,821,819,816,812,809,811,813,813,814,813,814,814,815,815,812,808,808,811,818,819,818,820,819,824,823,822,816,817,820,822,829,833,834,834,831,836,838,839,839,843,846,851,860,867,866,870,869,870,871,870,864,862,864,866,865,862,860,859,855,854,852,851,843,833,828,825,828,827,826,826,822,822,822,822,816,813,808,813,817,818,817,816,816,815,814,809,798,788,778,778,783,798,824,863,905,945,986,1018,1049,1086,1114,1140,1152,1161,1158,1156,1145,1131,1108,1065,1013,950,888,845,823,816,825,841,850,850,847,829,817,811,806,802,803,803,802,805,806,808,807,803,803,803,801,806,808,809,807,810,812,813,812,808,806,807,808,812,809,814,811,815,815,817,817,816,814,814,816,817,816,820,821,828,827,823,823,819,822,824,826,827,824,828,832,835,836,833,830,831,830,831,830,830,832,834,838,839,839,832,834,833,838,834,836,834,834,837,840,841,839,835,831,831,829,830,825,826,826,832,831,830,829,829,828,830,831,825,820,822,827,827,828,826,823,823,825,822,818,813,814,818,815,812,811,812,811,816,815,811,807,806,806,804,810,809,807,807,807,812,812,808,805,807,805,807,812,811,810,812,816,815,815,815,813,811,813,817,824,823,824,825,832,832,837,835,840,843,847,854,857,861,864,866,867,866,868,867,862,856,859,857,857,855,854,852,854,852,846,835,829,827,823,821,817,817,818,820,821,818,813,812,813,812,815,814,813,812,816,819,817,809,800,788,776,775,775,789,814,850,892,937,977,1011,1045,1078,1111,1137,1152,1158,1162,1164,1153,1144,1126,1099,1048,989,926,874,841,817,819,829,844,853,852,841,828,814,809,806,803,799,799,798,800,803,806,802,802,804,804,803,805,803,802,802,804,810,807,806,803,804,807,808,808,808,805,807,811,812,810,808,806,807,812,811,813,811,811,813,816,816,817,814,814,815,817,820,821,820,820,823,822,826,829,826,826,826,826,831,831,829,828,830,836,839,841,839,834,831,830,834,832,830,832,835,834,836,837,837,835,834,832,834,835,835,832,831,832,836,839,834,832,824,823,823,827,825,823,822,822,824,832,832,826,824,823,823,822,821,822,817,817,822,825,825,824,817,812,810,810,814,816,818,814,814,816,815,816,813,807,804,807,808,811,816,814,817,816,816,821,819,815,812,810,817,819,829,828,827,828,829,832,833,832,826,829,835,844,848,852,852,857,862,867,868,868,866,864,869,870,874,875,872,868,866,865,863,861,856,857,854,852,850,844,838,832,832,831,827,821,819,817,819,822,825,826,821,819,823,824,823,823,819,816,817,816,809,796,783,777,779,792,813,841,874,914,958,1003,1039,1075,1108,1138,1164,1178,1182,1183,1173,1162,1141,1110,1054,983,921,867,837,830,832,842,850,854,850,847,836,824,814,811,811,811,808,808,805,807,810,815,819,817,819,820,821,822,819,813,808,805,807,810,813,815,816,818,821,821,822,817,815,813,816,823,825,823,823,822,824,826,822,816,813,818,820,823,827,827,828,831,834,835,834,831,829,825,831,831,834,835,833,836,837,838,835,834,831,832,834,838,842,839,842,846,847,846,842,835,836,841,843,843,843,841,841,846,848,847,842,838,838,838,840,842,840,837,842,843,848,844,840,839,834,833,839,842,840,838,839,841,841,839,832,825,823,822,827,831,835,833,833,832,831,832,829,824,822,825,828,830,829,827,827,829,830,832,829,826,826,831,830,833,833,835,839,842,845,842,845,847,851,855,862,865,866,870,877,881,884,882,880,874,876,878,877,877,874,874,873,872,876,877,869,861,862,858,853,849,850,844,844,843,844,843,836,832,832,833,835,836,833,833,836,839,838,838,831,828,819,811,799,791,787,794,811,845,882,924,968,1006,1042,1080,1113,1138,1162,1180,1188,1188,1185,1171,1151,1123,1084,1032,971,913,868,841,837,848,860,871,872,862,854,844,839,830,826,821,822,827,827,827,821,820,818,822,827,831,831,831,831,830,834,836,831,827,826,825,826,832,830,830,830,833,837,837,835,832,828,827,832,836,837,833,833,838,844,840,839,833,833,837,838,840,842,841,846,848,850,851,849,846,847,849,849,852,852,851,852,853,857,856,855,855,853,855,855,854,855,857,858,861,862,860,857,853,852,851,853,851,853,854,854,856,855,853,851,848,849,852,849,850,849,849,855,860,856,851,848,845,845,843,845,839,840,842,843,846,843,839,834,833,833,832,831,828,830,836,836,837,831,828,828,833,832,830,827,827,827,835,834,838,838,837,834,834,835,835,833,829,830,835,840,842,841,841,839,841,843,848,846,849,846,851,854,860,867,866,867,867,871,877,880,882,882,883,887,890,889,883,879,874,878,875,873,872,869,867,869,865,858,849,837,836,839,838,834,832,830,835,837,838,834,831,830,834,830,829,829,829,831,831,827,817,806,796,793,804,822,847,882,921,970,1014,1055,1092,1125,1151,1174,1186,1186,1178,1167,1154,1140,1114,1072,1013,942,890,854,837,837,843,853,861,863,859,848,839,828,823,821,821,821,822,819,820,823,824,827,829,827,827,828,828,828,827,823,821,829,830,831,830,828,829,832,832,829,824,824,827,833,837,838,837,836,835,836,835,838,835,833,836,842,846,847,845,842,845,845,846,848,844,844,843,847,848,853,856,852,851,854,856,855,852,848,851,852,857,858,852,853,852,852,858,857,853,849,847,855,858,858,858,855,853,853,850,847,843,842,844,844,849,850,851,846,845,846,847,847,843,840,841,844,845,847,848,845,839,839,838,839,837,831,829,832,834,835,835,832,828,826,826,825,822,821,818,818,819,825,830,828,823,820,822,827,828,826,823,819,820,829,834,831,830,826,826,826,834,833,828,831,836,840,845,842,838,841,841,846,851,854,858,863,869,874,882,879,876,874,875,876,874,871,870,869,867,869,868,863,862,856,855,854,849,844,835,830,831,835,837,832,827,824,822,823,822,821,819,817,820,828,831,826,828,821,820,819,816,810,798,784,786,793,810,834,864,897,937,979,1017,1054,1084,1114,1139,1162,1181,1183,1178,1165,1148,1129,1098,1051,982,919,869,838,829,833,841,848,849,853,843,834,823,816,812,810,817,817,813,813,810,810,811,811,809,814,813,816,818,819,818,815,812,813,813,815,814,816,814,816,824,826,824,819,815,817,819,822,824,821,824,826,828,833,833,828,825,825,823,830,833,832,834,832,837,841,839,838,835,834,836,836,840,838,839,841,842,844,846,845,842,839,840,842,844,845,842,842,846,846,848,844,839,837,839,839,837,837,838,838,839,842,844,840,838,834,832,835,840,839,838,834,832,832,835,837,835,830,830,828,829,830,830,830,830,829,830,830,824,822,817,810,816,818,824,822,817,813,815,818,815,813,811,809,808,809,812,813,811
