796,786,779,773,766,762,765,768,770,771,766,770,767,770,774,773,769,764,767,770,774,776,774,773,771,773,773,773,771,768,770,774,778,779,774,774,776,780,780,781,778,773,775,779,782,782,787,784,786,787,787,782,779,784,788,786,788,788,793,792,795,791,788,789,786,787,790,794,793,795,791,792,797,799,797,797,796,794,798,800,801,798,795,797,797,799,797,792,792,790,790,791,793,796,795,793,792,795,793,792,786,783,785,789,791,794,790,790,788,792,792,789,786,780,777,783,784,785,781,779,782,780,778,773,771,769,771,774,771,775,771,772,771,772,776,772,769,769,772,774,779,774,778,780,779,780,781,775,773,772,778,781,783,783,781,781,782,784,779,782,777,779,778,785,787,784,788,790,789,796,797,792,790,789,797,804,811,814,821,824,827,830,829,826,824,820,823,827,828,826,824,824,823,820,819,811,808,804,803,798,793,792,793,794,791,788,778,776,774,777,779,778,776,779,777,780,784,781,778,776,770,772,769,759,747,740,742,749,768,789,822,860,902,944,987,1022,1054,1083,1109,1127,1135,1133,1122,1108,1095,1072,1032,978,914,858,821,800,798,802,807,814,814,809,796,788,779,775,775,775,775,771,767,765,767,766,768,766,769,774,781,781,776,774,772,776,771,774,771,769,775,776,780,782,779,776,772,772,778,781,781,779,777,779,785,786,783,781,777,777,783,784,781,782,784,787,793,797,795,795,791,791,794,794,792,791,794,795,800,800,802,799,792,795,797,798,800,799,796,800,801,806,806,800,800,800,799,801,798,793,800,801,801,803,797,796,790,795,796,798,795,794,796,798,802,802,801,796,795,796,794,794,790,789,789,789,794,793,788,783,783,785,787,784,782,778,780,783,786,784,781,778,776,780,777,778,775,780,782,785,786,786,783,784,787,789,786,784,779,783,788,791,792,791,790,790,792,791,788,788,790,793,795,796,795,799,803,807,806,801,801,800,807,811,816,821,824,827,832,841,845,844,841,835,832,833,835,840,838,833,832,836,831,828,827,821,819,820,823,822,819,812,803,802,801,805,800,792,790,789,795,796,796,792,793,793,795,800,800,794,788,786,787,789,783,777,764,751,750,756,773,796,828,868,915,960,1001,1033,1066,1094,1119,1141,1142,1141,1137,1122,1108,1087,1051,1000,938,880,837,818,813,812,820,825,829,827,820,810,796,787,782,780,780,777,773,774,774,780,786,783,787,784,785,784,785,783,781,775,782,786,792,790,789,784,780,782,783,783,782,779,780,785,789,792,791,787,787,789,790,790,789,787,788,789,791,796,794,792,791,795,795,798,796,797,795,800,805,808,810,807,800,800,802,806,809,808,805,805,807,810,815,816,810,805,803,803,810,811,812,809,816,817,817,816,812,810,806,806,807,812,810,809,806,809,812,814,810,807,803,799,803,805,810,812,811,808,808,808,811,810,803,801,801,804,806,806,804,807,805,806,803,801,793,790,794,797,799,793,795,793,794,795,795,794,790,788,791,794,800,799,796,794,794,795,798,798,793,788,792,796,800,806,803,801,800,801,804,804,801,799,800,801,806,812,814,817,814,813,814,815,815,814,814,815,822,833,839,843,843,844,844,846,848,849,851,849,850,852,854,854,849,843,838,838,837,836,831,824,825,824,821,817,807,809,807,806,805,801,799,798,798,806,808,807,803,800,800,799,803,798,795,787,786,784,774,764,759,756,767,788,817,852,889,929,972,1012,1047,1084,1112,1129,1139,1145,1145,1135,1120,1103,1075,1033,974,917,862,826,809,812,822,829,832,828,822,815,811,802,792,783,785,786,785,781,780,778,784,791,789,791,791,789,792,791,787,784,782,786,792,794,793,793,790,791,794,792,791,790,789,791,794,794,793,793,794,795,798,796,794,793,790,793,800,801,804,804,801,804,805,807,806,802,801,804,809,812,814,813,811,812,810,810,811,808,803,809,814,817,816,819,814,811,814,814,812,809,808,812,812,812,812,810,811,813,812,810,808,806,807,809,814,814,812,810,808,806,809,807,804,804,801,803,806,808,805,804,803,805,805,802,795,793,792,794,795,794,793,792,790,790,794,788,785,784,787,788,791,794,792,793,793,794,797,794,790,790,792,793,797,796,795,795,797,800,800,797,793,793,795,795,799,800,800,803,806,803,806,803,803,806,808,806,806,809,812,821,828,831,833,834,837,840,840,843,845,841,844,848,848,844,835,831,830,833,830,828,826,826,820,819,814,808,804,797,792,795,797,788,786,793,792,793,796,790,787,787,790,790,793,793,791,787,785,783,776,766,753,747,754,776,806,843,889,939,982,1027,1063,1095,1119,1134,1140,1146,1134,1124,1107,1091,1061,1024,961,901,848,814,796,799,805,810,820,821,814,813,803,790,784,776,773,777,779,782,778,779,778,781,786,788,783,779,780,778,784,783,783,783,781,786,785,789,789,783,776,781,781,786,788,789,787,785,787,789,790,786,785,785,784,786,789,791,792,796,797,801,798,795,796,796,800,799,798,798,802,804,806,807,806,801,797,799,799,800,803,803,807,808,812,811,807,806,804,806,805,808,810,806,810,813,813,809,809,806,801,803,802,805,803,805,801,806,809,808,805,801,793,798,801,804,804,803,801,803,805,805,803,798,792,788,789,792,794,791,788,791,792,793,791,785,780,781,781,782,782,782,781,783,786,782,784,779,774,775,778,780,781,781,780,782,785,787,790,788,782,785,786,787,791,790,785,790,792,795,795,790,785,783,783,787,793,798,795,795,794,801,802,803,800,801,800,806,814,822,820,826,830,833,839,840,837,832,828,832,836,837,836,833,835,828,829,823,820,816,816,811,806,799,799,798,801,798,796,793,787,787,788,786,788,787,787,788,793,795,792,785,783,782,778,772,759,750,742,749,769,788,813,846,881,928,967,1002,1039,1075,1104,1125,1137,1142,1135,1122,1107,1088,1063,1018,954,893,843,816,803,804,807,814,817,816,809,802,791,784,776,776,779,777,776,776,778,775,775,777,776,780,785,789,785,781,780,779,781,780,778,779,780,780,785,788,785,782,783,785,787,784,782,780,780,786,790,793,795,793,788,792,793,792,790,788,790,795,798,802,800,799,795,798,801,797,795,799,802,805,807,808,807,807,805,807,806,802,803,804,808,811,811,811,810,810,809,808,803,798,796,801,806,806,805,805,805,805,810,805,801,797,796,799,802,805,804,802,804,806,804,802,798,792,793,794,795,796,795,788,791,794,792,792,788,784,783,782,787,786,786,785,781,784,784,783,781,777,777,781,786,786,790,789,784,786,790,791,789,784,785,789,791,796,797,796,793,795,796,793,793,792,790,793,796,799,798,800,802,803,808,807,804,802,804,806,810,819,823,828,829,831,841,840,841,838,839,840,839,847,847,841,837,836,837,832,833,823,819,820,822,822,818,813,807,805,801,798,797,787,789,792,793,795,796,792,789,789,792,793,795,790,787,788,787,785,779,769,759,757,764,776,799,827,863,908,949,988,1026,1057,1085,1115,1133,1144,1142,1137,1126,1119,1109,1093,1063,1011,951,890,846,820,809,805,809,821,826,826,822,810,797,791,782,784,786,783,777,775,774,778,783,785,784,783,785,787,787,790,787,785,783,786,792,795,793,791,789,786,787,788,787,787,786,784,785,791,793,793,792,789,790,795,793,793,790,794,796,801,801,801,797,797,792,796,803,803,800,798,799,803,808,810,808,806,804,804,807,808,807,809,807,813,815,816,814,809,807,810,806,810,807,810,812,810,814,816,817,813,804,803,806,809,813,810,809,808,813,813,815,810,808,802,803,804,808,809,807,807,807,809,808,809,805,798,803,803,801,802,801,797,804,804,801,796,792,789,789,792,795,794,791,790,792,792,792,787,784,783,789,791,791,793,794,794,796,798,798,796,792,790,791,795,796,797,794,794,798,801,799,794,794,793,794,797,797,796,799,802,806,812,813,808,806,803,804,813,816,820,819,826,832,839,843,842,842,843,843,846,843,840,841,843,845,843,835,830,829,830,828,822,820,814,806,805,811,812,804,801,796,794,799,793,793,791,794,796,800,802,800,795,791,790,794,790,786,780,770,760,757,760,767,781,807,842,881,930,973,1010,1045,1080,1111,1134,1146,1149,1144,1139,1127,1111,1088,1042,985,923,870,833,813,807,813,825,829,829,815,805,796,794,790,784,787,782,783,788,788,785,787,787,792,795,795,793,792,792,789,790,790,788,789,788,793,795,798,794,791,792,794,794,794,791,790,794,801,803,804,802,799,798,800,801,799,799,798,800,803,809,807,805,805,806,808,809,807,805,804,808,812,815,815,813,811,811,814,817,813,809,811,815,819,818,819,817,817,817,816,815,813,810,811,815,820,820,817,815,814,814,817,817,814,809,808,810,812,816,817,814,812,813,814,815,811,807,807,808,813,810,813,809,805,804,805,802,801,793,795,799,800,800,798,795,793,793,794,793,790,787,787,793,796,796,797,793,792,794,798,796,796,794,797,802,802,805,806,804,804,803,801,801,797,796,800,806,809,805,808,808,812,816,815,813,810,809,812,818,827,831,833,839,846,849,851,851,847,846,848,857,859,856,857,854,851,850,848,842,838,838,835,839,837,831,825,819,818,816,813,808,805,799,799,802,807,808,811,803,804,806,807,807,805,805,805,805,800,794,781,771,763,764,774,794,820,857,904,953,996,1032,1064,1091,1119,1142,1158,1161,1163,1154,1143,1131,1104,1057,997,930,876,843,823,822,826,833,842,849,844,831,819,805,799,794,793,792,788,788,792,795,798,797,798,799,799,800,800,798,793,793,794,799,803,801,796,793,798,801,802,798,798,796,795,802,804,803,807,807,809,810,813,807,805,800,804,807,805,806,808,809,810,815,816,813,812,806,806,811,814,816,815,816,818,818,815,816,815,814,817,823,829,830,829,828,822,826,826,825,825,822,818,820,825,831,832,827,822,822,823,826,825,819,819,820,826,824,830,826,821,821,819,818,819,819,813,812,816,819,821,817,818,816,819,819,819,813,810,810,817,815,816,813,810,811,803,808,806,803,798,799,799,801,809,806,805,804,802,805,807,802,799,802,806,810,811,808,807,809,807,809,804,804,800,806,806,813,817,814,813,811,815,815,819,816,815,821,824,830,831,828,833,834,840,848,850,851,851,857,861,867,870,868,866,862,864,863,857,852,849,849,852,856,856,852,842,837,832,831,832,827,821,820,822,824,823,824,821,815,814,814,814,814,811,813,811,816,819,822,817,811,803,798,792,782,772,772,770,787,818,854,894,935,972,1011,1046,1085,1118,1142,1161,1169,1177,1177,1167,1154,1128,1097,1047,986,928,874,840,827,830,842,853,851,847,837,821,816,807,801,801,806,808,811,811,804,798,797,801,804,807,809,807,811,814,817,818,811,804,804,803,805,807,809,807,806,806,810,813,814,811,808,808,807,811,813,813,814,815,818,821,821,818,816,817,815,821,822,817,820,821,823,826,827,824,824,823,824,827,831,832,830,831,832,834,835,835,830,830,827,832,835,832,834,835,837,837,839,838,834,833,833,837,837,832,836,836,838,839,836,837,829,829,830,830,837,835,833,833,832,834,836,830,827,828,830,835,835,836,833,835,836,837,835,832,827,825,825,824,827,830,824,821,822,823,825,821,815,812,811,816,816,821,821,820,819,824,824,825,819,819,818,823,826,828,827,826,826,825,830,829,827,823,823,825,835,837,839,841,837,834,838,839,843,838,843,846,852,860,865,870,871,874,878,880,880,874,873,869,875,876,879,879,875,868,863,864,867,863,859,851,847,844,845,845,845,836,830,831,830,831,829,826,824,822,823,830,829,828,826,824,828,828,826,824,815,809,804,794,788,785,794,810,836,877,918,958,994,1024,1054,1086,1116,1140,1158,1165,1170,1167,1166,1156,1143,1115,1073,1018,959,903,862,839,831,842,855,866,864,859,849,842,834,830,824,815,810,806,804,807,813,811,811,808,809,813,816,816,815,812,809,809,814,817,819,817,815,812,818,817,815,811,809,807,810,814,815,812,813,814,816,818,815,809,810,816,819,822,824,824,822,821,819,823,822,819,817,819,824,827,828,832,829,827,827,831,830,832,829,829,830,834,836,837,839,837,837,838,839,842,835,835,836,838,840,841,842,839,838,836,836,837,834,834,832,833,839,842,839,836,834,837,834,835,834,831,829,832,834,834,834,833,832,829,831,828,826,823,825,826,831,830,826,823,819,822,823,818,812,809,807,811,816,822,819,816,815,816,816,816,816,814,815,818,820,825,824,820,820,817,817,819,819,817,818,819,821,828,830,828,824,820,822,820,822,826,824,825,830,836,840,839,836,835,832,835,842,849,851,851,859,865,870,872,870,870,871,871,865,868,862,864,861,864,861,854,853,851,851,845,834,827,825,828,830,825,824,822,819,820,815,813,810,809,813,818,821,820,815,813,811,812,805,792,781,771,774,785,805,831,868,906,952,996,1030,1067,1095,1124,1147,1160,1169,1164,1155,1142,1130,1106,1067,1008,944,886,843,826,823,829,837,843,842,837,823,811,799,798,797,798,799,800,803,806,806,806,802,799,798,799,803,807,806,804,803,802,804,803,800,800,799,798,803,806,807,805,802,800,803,805,806,806,799,797,805,810,813,811,813,812,811,815,815,814,813,811,815,819,825,824,825,822,822,821,824,822,818,819,818,824,826,828,825,827,829,830,830,828,823,823,825,827,830,830,830,831,835,835,830,829,821,819,823,823,826,825,827,827,829,830,827,824,820,821,824,826,825,826,825,824,823,827,823,819,816,814,817,817,818,817,815,811,813,812,809,806,806,801,805,810,809,807,806,801,803,802,804,798,796,798,800,803,805,805,804,804,804,807,802,802,803,804,808,810,809,807,811,807,811,811,810,805,805,805,810,819,818,818,817,821,824,828,826,828,829,833,842,847,850,853,854,857,859,863,857,857,854,851,851,853,856,854,848,845,845,845,845,839,830,822,819,819,821,820,819,813,811,810,811,809,810,805,803,807,810,812,811,808,807,809,807,803,792,786,781,774,766,767,775,792,819,859,895,930,964,994,1026,1062,1099,1126,1146,1152,1153,1150,1141,1128,1106,1074,1027,970,911,864,832,816,817,825,838,845,843,832,818,813,809,805,805,798,795,794,796,798,798,792,792,794,799,807,807,806,802,796,795,793,795,794,793,793,800,805,806,804,800,799,801,802,801,800,798,801,804,809,809,810,803,804,807,811,810,806,805,807,811,816,819,817,813,815,817,820,822,820,817,821,821,825,827,826,824,822,821,821,825,820,820,821,826,831,831,829,828,830,828,832,831,828,826,826,830,831,832,831,827,822,820,822,823,824,821,819,822,826,828,826,825,820,819,819,821,815,817,817,822,822,823,819,813,809,811,809,811,809,805,806,806,810,810,809,803,798,801,799,801,800,798,796,799,804,807,807,803,800,799,802,805,807,805,805,807,813,816,815,813,809,808,808,811,811,810,809,814,817,818,819,818,819,819,823,822,827,822,821,831,833,841,843,842,841,850,855,858,857,856,858,862,864,862,855,852,853,850,850,846,840,838,843,842,839,834,826,823,819,820,817,812,809,809,812,816,816,815,812,810,812,814,813,812,810,807,809,808,805,797,787,778,774,776,788,809,835,870,914,959,1002,1034,1066,1096,1122,1143,1155,1159,1152,1146,1135,1123,1099,1053,994,928,875,839,822,819,825,832,841,842,835,823,811,805,797,797,796,792,793,796,799,800,803,803,800,802,802,802,802,798,796,796,801,804,806,807,802,805,803,803,806,802,801,802,806,809,810,810,810,811,814,812,812,810,808,807,812,816,818,816,819,816,818,820,819,819,813,815,820,822,826,827,825,824,826,828,829,827,825,822,824,829,832,834,833,832,833,836,832,827,825,824,829,830,835,837,831,827,828,826,827,832,826,826,823,825,830,833,832,828,823,822,824,824,825,826,822,823,825,830,830,826,823,819,819,817,823,819,816,817,814,814,817,818,814,811,807,808,808,809,807,804,806,807,808,811,807,802,800,803,806,804,805,806,810,813,817,814,811,805,806,811,809,815,811,808,809,813,818,819,818,817,815,814,815,816,819,820,819,823,825,827,824,820,823,821,827,833,839,843,845,851,855,860,864,863,860,858,858,859,861,861,858,858,859,857,857,850,847,843,845,841,837,837,831,829,825,822,821,815,814,808,805,812,811,811,811,811,813,816,819,816,812,808,803,807,809,802,794,784,775,772,773,783,798,818,847,884,924,966,1000,1031,1068,1097,1127,1150,1164,1167,1163,1160,1150,1138
