945,949,955,961,965,967,966,965,967,972,972,977,974,982,982,985,985,985,980,978,973,970,968,966,964,964,959,958,952,948,939,935,926,920,916,910,905,904,900,897,897,894,885,883,879,875,874,875,875,876,875,874,874,871,868,866,866,863,865,866,867,868,872,873,867,868,869,868,867,866,864,865,866,869,873,873,876,871,870,865,865,866,866,865,867,866,867,871,870,872,870,867,865,865,866,865,866,867,868,869,866,866,864,859,855,857,857,860,860,860,865,865,862,862,857,856,855,855,851,852,851,854,854,854,857,857,857,853,850,851,851,854,854,856,857,854,857,851,850,851,850,851,849,851,850,852,855,855,858,857,856,853,849,849,846,850,852,852,856,857,856,855,855,853,849,849,848,851,852,853,855,854,856,854,852,854,850,848,851,850,854,855,858,858,860,860,858,856,852,851,852,852,850,856,857,860,859,857,860,855,855,854,851,856,855,855,853,857,860,858,856,857,854,856,856,857,856,859,861,862,862,858,858,856,854,853,853,854,858,860,861,864,862,858,856,857,855,854,855,854,857,856,857,857,860,859,858,858,856,855,855,856,856,858,864,863,865,863,861,860,860,858,862,866,871,875,879,880,881,882,880,883,884,885,887,888,891,893,893,897,893,890,886,882,881,880,878,876,875,874,869,865,864,864,858,858,858,857,855,855,859,857,859,860,853,852,852,852,847,850,850,851,850,855,856,856,855,858,858,855,854,854,854,857,857,864,870,883,897,914,933,954,975,993,1008,1007,990,963,923,876,834,789,753,727,716,721,741,765,786,803,817,833,845,853,861,866,866,866,864,864,866,870,871,873,874,874,873,872,875,872,873,876,879,882,879,884,882,881,880,881,879,877,879,879,884,887,889,892,892,888,889,890,891,890,892,891,893,893,898,899,898,899,900,898,897,896,901,903,906,910,915,914,918,919,918,920,916,920,925,930,931,933,938,942,946,948,949,949,952,952,958,958,962,970,974,979,984,983,984,986,986,986,987,987,988,987,987,988,986,982,976,971,967,964,959,954,951,945,942,940,934,927,922,915,908,902,897,893,892,892,891,891,887,886,882,880,877,871,872,872,871,869,873,873,870,866,864,868,866,868,868,864,866,864,868,868,871,870,869,868,866,864,865,862,865,869,873,876,874,874,870,868,866,867,865,867,866,869,867,866,867,867,867,864,863,863,863,863,866,867,867,870,865,866,863,861,859,857,859,857,861,861,860,862,863,860,859,858,854,853,852,853,853,854,856,861,861,855,853,856,854,855,854,851,852,855,857,855,854,854,853,851,851,848,848,851,850,855,854,857,852,854,853,850,847,848,850,849,848,847,848,854,852,853,851,852,850,848,848,848,847,848,847,850,852,855,852,850,850,845,850,847,849,850,854,855,853,851,849,845,846,845,847,848,849,850,851,853,852,852,853,850,849,847,847,847,849,850,853,849,853,855,852,850,848,849,849,848,847,851,852,852,853,852,850,851,850,846,846,845,850,850,854,850,852,853,852,852,851,848,846,848,848,850,851,853,855,853,851,853,852,851,852,850,853,855,861,863,865,861,865,866,866,867,868,869,872,880,884,887,886,886,884,879,878,877,870,865,870,872,872,872,871,868,864,857,852,849,844,845,846,850,851,850,849,847,846,844,839,837,835,838,838,841,843,847,847,846,846,841,837,839,839,838,847,842,848,852,854,854,859,867,874,891,914,936,962,990,1000,997,969,930,880,826,772,733,697,680,680,694,713,738,758,771,782,794,809,820,832,841,851,854,856,855,855,852,852,855,857,856,858,855,862,859,863,865,865,868,867,867,866,864,865,865,870,871,873,876,871,873,871,871,868,869,871,872,876,878,880,881,881,881,883,882,881,879,879,881,882,886,888,893,894,898,899,899,899,899,903,902,909,909,913,917,917,922,922,923,927,929,932,937,942,946,952,956,959,962,963,964,964,965,967,966,971,974,977,981,981,981,978,977,975,974,972,969,969,965,962,959,953,948,938,933,926,919,913,910,904,903,901,898,891,887,883,878,873,872,871,872,871,869,871,874,870,870,866,863,861,858,860,860,862,859,863,864,867,866,864,862,863,863,861,861,863,864,867,868,866,866,867,862,862,863,861,862,862,868,870,869,868,867,865,864,863,860,858,861,860,863,866,867,866,864,865,861,859,857,856,855,856,857,859,860,860,858,856,856,855,858,854,856,857,858,858,861,857,856,855,852,853,852,850,851,853,854,857,856,858,854,853,848,851,849,848,848,851,850,856,851,853,853,851,847,849,848,847,846,852,848,849,850,850,849,849,847,845,847,846,848,849,852,853,857,853,852,851,849,848,847,848,844,846,848,852,855,855,854,851,852,849,847,846,849,849,849,851,855,856,856,853,850,850,850,849,849,849,851,853,853,852,850,852,851,849,849,848,848,848,850,851,857,854,855,854,851,848,850,845,846,849,851,854,857,857,855,855,854,850,852,849,852,851,852,855,855,854,855,858,856,855,857,858,861,865,867,874,874,877,876,875,873,873,874,877,881,883,889,889,890,890,889,883,880,878,876,872,869,872,871,869,868,866,862,857,855,851,851,849,848,850,850,850,852,851,849,846,846,843,842,845,843,847,848,851,852,855,852,851,851,847,847,848,850,851,856,864,876,889,906,930,955,980,1003,1015,1011,989,951,903,851,801,756,718,702,700,716,740,763,785,800,813,831,841,851,855,861,861,858,856,854,858,860,865,871,872,873,872,868,866,870,868,871,874,876,873,877,876,876,876,876,874,873,871,875,873,876,878,882,883,882,880,883,880,878,879,878,883,884,888,891,890,889,891,893,892,893,893,893,898,902,902,908,910,910,912,912,913,917,916,917,921,927,929,935,938,938,940,940,944,946,949,951,954,961,965,967,971,973,976,976,976,980,978,980,984,987,986,991,989,987,985,982,977,976,972,970,966,961,961,959,953,945,939,932,923,918,909,904,900,894,898,894,892,884,882,880,874,874,867,864,863,866,867,867,866,865,865,861,860,859,856,855,859,860,862,861,858,858,860,859,855,857,856,855,858,861,859,861,861,862,861,860,861,857,857,857,860,861,862,864,864,863,862,860,856,857,853,855,857,857,859,860,861,859,859,853,851,852,848,849,851,851,850,852,853,850,849,850,843,843,844,843,843,847,846,849,850,849,849,847,844,842,838,839,841,842,842,844,847,846,845,845,844,842,840,839,841,841,843,845,846,846,845,841,841,841,839,840,842,843,843,842,844,843,843,842,842,837,832,834,836,838,844,846,845,843,844,841,840,839,839,837,835,835,840,843,842,843,840,840,838,838,837,836,838,840,843,844,844,842,842,838,838,836,836,836,840,840,841,844,842,844,841,840,836,835,838,835,837,837,841,841,842,842,842,840,841,838,831,839,838,841,842,842,841,841,840,838,838,838,837,837,837,836,837,843,842,843,840,840,839,836,833,839,836,842,844,844,842,847,845,846,848,851,852,855,856,860,859,862,867,869,871,872,871,869,869,868,868,867,861,863,863,864,862,856,854,848,842,838,836,839,838,837,835,835,837,832,830,831,828,827,827,827,824,829,830,831,831,829,830,828,822,826,827,830,829,832,833,834,832,835,836,838,846,859,876,897,919,947,968,986,984,962,930,878,818,765,722,687,664,669,686,705,726,744,761,778,788,805,819,827,836,836,842,840,835,837,836,838,838,843,847,850,848,851,851,851,849,851,850,850,850,849,847,851,857,859,858,856,857,854,857,855,853,853,856,856,859,861,861,861,861,860,862,862,862,863,864,869,870,874,874,874,876,872,873,874,876,876,879,882,888,891,893,896,902,903,904,905,906,911,912,919,924,928,933,939,940,940,944,943,943,947,952,955,959,960,961,963,966,967,963,963,960,963,965,964,965,964,957,953,947,941,935,929,918,911,907,903,897,897,893,889,882,876,871,863,855,856,856,853,853,851,852,848,847,843,841,838,836,837,838,840,839,839,842,838,840,839,837,833,832,832,834,836,838,839,839,840,842,841,838,835,834,832,835,833,833,834,834,834,837,833,833,834,835,833,832,834,838,837,838,835,833,832,829,827,826,827,826,828,829,833,832,828,830,829,827,825,821,821,821,821,819,822,821,824,824,821,822,819,817,817,817,818,819,820,822,821,819,817,818,814,813,813,816,818,819,817,820,819,820,818,818,814,812,808,810,812,814,818,819,820,821,816,815,815,816,816,815,815,819,821,821,819,818,818,817,813,811,812,811,813,818,822,822,821,817,816,816,812,809,811,813,815,817,818,822,820,820,816,814,813,813,810,813,815,819,820,817,817,814,813,815,815,813,819,819,819,823,822,823,823,824,822,817,813,815,818,818,819,821,826,823,825,820,819,820,817,817,816,817,819,818,819,822,822,820,820,819,819,819,820,820,818,824,825,827,828,831,831,834,833,835,834,837,840,844,848,852,857,858,858,856,854,851,848,849,849,849,851,850,848,844,840,838,832,825,825,826,826,824,825,830,826,827,826,819,818,813,815,816,820,822,822,823,824,822,821,821,816,818,817,818,820,823,827,829,830,832,834,838,845,856,875,900,923,956,980,996,996,982,943,892,836,781,731,691,667,665,684,706,726,746,755,770,780,790,807,820,830,838,842,843,839,839,840,840,840,840,842,843,844,847,848,849,849,854,853,850,849,849,849,851,855,856,858,859,860,860,856,857,857,857,857,855,856,862,868,869,870,869,869,867,867,865,866,866,871,872,875,878,881,881,882,882,885,886,888,891,896,897,903,906,908,910,912,917,915,918,920,925,929,936,943,947,951,956,954,956,955,954,957,958,962,963,966,969,970,971,972,971,966,965,962,964,962,958,958,956,950,946,939,934,924,920,916,909,906,903,899,893,892,888,880,873,866,862,860,858,854,854,857,855,856,854,851,847,846,847,841,839,840,843,842,844,843,842,842,842,841,839,836,838,839,842,844,845,846,844,843,842,841,838,838,839,842,841,842,846,846,848,844,845,843,840,839,839,840,840,840,845,843,843,841,841,839,839,838,839,839,839,838,841,842,838,833,835,829,825,821,826,829,831,832,834,833,831,826,831,831,827,827,827,828,830,827,829,827,827,823,823,817,821,821,824,825,825,823,828,826,826,825,824,820,816,818,819,821,822,822,825,824,824,821,822,821,822,822,820,821,822,820,821,825,824,821,822,820,816,818,821,822,826,828,827,825,825,828,825,823,822,820,820,822,824,825,826,825,827,826,825,824,820,822,821,821,822,826,825,824,825,822,822,821,817,819,820,824,826,826,825,827,827,823,823,821,818,822,822,827,826,832,831,828,829,826,825,817,817,819,817,818,822,825,828,828,826,825,827,824,824,825,828,828,829,830,831,831,829,824,821,824,825,824,826,830,830,835,833,834,839,835,834,837,836,839,841,841,846,847,848,850,852,857,857,857,859,858,857,861,860,860,859,856,852,852,847,847,844,843,838,834,833,833,829,830,830,827,826,823,823,823,822,821,821,824,827,824,828,822,820,822,820,819,818,822,822,826,827,827,829,830,826,829,833,841,859,878,903,934,961,979,993,989,963,923,873,822,774,730,695,678,678,693,715,738,756,769,779,789,801,813,823,830,837,837,839,833,833,832,832,835,838,842,843,846,847,849,848,849,848,846,846,846,848,850,849,854,854,858,857,856,853,855,852,852,857,859,863,862,861,863,860,860,859,856,859,860,860,864,865,867,866,870,871,872,871,873,875,876,880,881,885,888,890,891,893,897,896,898,902,902,906,911,919,922,930,933,934,935,938,940,940,945,942,950,953,960,963,964,967,969,961,963,965,964,965,964,964,966,963,956,953,947,939,931,926,923,916,916,911,905,902,896,890,881,874,870,865,859,857,854,856,854,850,849,845,842,844,841,839,837,842,836,837,841,843,842,841,839,838,832,830,831,832,834,835,838,838,837,839,835,831,830,830,830,831,833,838,838,841,840,836,834,834,832,831,830,830,829,831,827,835,835,833,832,833,830,830,826,826,829,829,831,831,829,827,824,823,820,822,821,821,825,823,826,826,822,820,819,823,819,818,820,820,816,819,821,821,821,820,818,816,818,812,810,812,813,814,818,818,821,820,817,816,814,813,812,812,815,816,820,820,822,821,818,816,814,813,812,811,812,814,819,820,819,819,818,816,816,814,809,811,815,814,818,818,817,817,817,815,811,810,811,812,814,814,816,820,820,817,814,815,813,810,808,808,814,814,815,821,818,818,818,816,814,812,813,814,817,820,821,819,819,818,817,818,811,812,814,813,817,815,820,820,819,823,818,817,814,815,812,811,816,816,817,819,822,820,820,819,817,816,816,815,813,812,817,822,820,823,822,819,819,817,819,819,818,821,824,828,826,827,827,833,833,833,832,833,836,840,847,849,850,853,853,851,850,849,848,844,842,839,840,842,840,840,836,830,824,819,817,815,819,821,822,823,821,819,819,814,811,811,808,808,810,812,814,818,816,817,814,813,812,809,810,814,817,818,820,825,824,825,830,841,851,868,890,915,941,962,970,962,929,881,826,767,720,680,647,641,651,670,699,720,738,752,766,775,791,804,809,815,820,820,825,822,822,828,828,830,828,829,828,826,830,833,832,833,836,837,839,837,837,836,835,837,839,842,845,846,843,846,845,844,843,844,842,844,846,848,848,855,855,854,855,850,848,851,850,856,856,862,866,869,870,872,872,872,872,874,873,880,882,889,892,893,897,897,903,903,904,907,913,915,920,925,928,935,937,938,943,940,944,946,947,946,951,954,956,959,961,956,953,954,950,948,944,942,940,934,928,928,923,915,907,903,897,889,882,878,872,868,866,861,858,853,849,844,840,840,835,835,833,834,837,840,836,835,834,833,831,830,827,826,829,831,831,834,834,831,831,828,825,829,829,830,830,831,833,833,837,835,833,831,831,830,826,827,830,832,836,835,835,833,833,829,826,830,827,826,827,828,830,831,831,830,831,828,825,827,823,824,827,827,827,829,826,825,825,822,819,819,814,815,818,821,821,822,822,817,817,816,813,810,816,815,816,814,818,818,819,819,820,817,814,813,815,811,815,816,819,819,817,813,816,813,811,810,810,811,811,816,817,822,818,819,817,814,814,810,808,806,808,809,812,819,816,814,816,814,816,815,811,813,813,817,815,817,816,812,814,813,813,811,809,812,813,816,819,822,821,820,818,817,816,818,813,813,813,816,821,820,821,820,821,817,818,813,814,815,814,818,818,821,821,821,818,817,818,817,815,817,815,817,821,824,822,819,821,819,819,816,812,813,818,817,820,824,824,821,824,822,821,820,819,815,820,817,821,822,825,826,826,825,819,821,821,822,824,829,835,837,839,840,842,842,839,840,839,839,842,847,852,860,860,860,861,856,855,851,849,847,848,848,849,847,848,842,840,833,829,824,821,821,823,822,824,826,826,827,824,817,815,809,807,807,812,814,817,820,819,817,820,815,818,816,816,817,817,817,821,823,825,830,841,854,870,892,919,950,976,993,996,977,946,898,844,795,746,707,680,673,681,700,724,746,764,778,787,795,805,813,821,826,831,828,829,833,828,827,830,830,835,836,834,836,837,839,840,846,844,845,842,841,839,842,841,846,845,848,852,854,854,855,855,851,853,848,852,848,855,857,860,863,864,864,866,862,864,862,865,867,869,873,875,878,877,878,882,881,881,882,884,889,890,898,901,906,908,911,913,914,916,918,919,920,927,934,941,946,949,951,951,953,953,954,957,956,960,962,963,964,963,963,963,959,959,955,950,945,945,941,936,933,925,918,911,904,894,887,881,877,875,874,872,866,859,864,858,855,848,845,841,839,841,842,840,840,841,840,839,839,838,835,834,833,835,839,838,840,839,838,836,831,830,831,829,830,831,834,834,838,836,840,837,835,832,831,833,830,831,833,835,837,838,840,836,832,831,829,826,830,834,832,833,837,839,837,838,831,826,826,826,826,826,830,832,827,830,828,821,823,819,820,819,817,819,822,823,826,826,825,824,819,820,819,816,818,820,824,823,823,824,825,821,821,819,819,817,817,818,820,823,824,824,824,820,815,815,814,815,813,815,816,817,819,819,821,818,818,816,814,817,815,816,816,817,818,821,820,819,819,818,817,814,816,815,818,817,821,820,819,816,813,812,814,814
