921,922,921,924,922,918,920,919,921,922,921,921,921,920,923,928,927,923,922,921,926,927,926,925,920,923,925,923,920,921,922,921,925,928,927,926,924,924,925,924,925,921,918,918,922,926,929,930,931,934,935,938,937,933,930,931,934,934,933,933,936,936,937,941,938,932,927,926,925,924,925,923,919,925,928,931,926,926,920,918,917,917,915,914,911,914,917,917,917,914,909,910,908,911,912,910,910,909,909,910,911,909,908,909,913,917,915,915,913,914,917,921,921,918,921,925,928,930,930,929,926,927,925,927,929,928,929,930,933,935,936,935,933,935,936,939,941,937,938,939,942,945,941,936,935,935,934,940,936,938,933,935,941,942,942,936,931,926,925,916,909,898,892,887,890,896,898,905,910,920,933,942,946,950,951,960,967,970,980,992,1006,1031,1063,1093,1112,1123,1126,1122,1114,1107,1097,1084,1066,1046,1026,1012,997,983,972,965,959,958,952,950,945,945,948,951,951,951,947,951,954,956,956,954,952,951,953,954,953,954,950,953,958,960,960,958,957,959,961,962,961,959,960,959,960,963,963,957,960,960,962,963,967,965,963,964,966,968,966,964,961,967,968,970,970,969,969,973,974,975,976,972,973,973,974,971,974,971,971,970,979,982,982,981,981,979,980,983,979,978,977,980,987,992,993,993,992,991,991,992,991,988,984,988,991,993,998,997,999,1001,1005,1005,1004,996,995,997,1000,1003,1002,1003,1007,1008,1012,1010,1007,1006,1003,1003,1002,1001,1003,1001,1001,1001,1002,1006,1004,1001,994,995,996,994,993,990,984,987,988,985,982,978,975,977,976,975,972,970,966,968,968,968,965,963,960,961,959,960,963,962,958,957,959,959,955,956,952,953,954,955,955,953,950,953,950,948,946,944,941,942,944,946,950,946,944,947,946,951,945,946,941,940,938,938,940,937,937,942,944,946,944,941,937,934,933,934,931,934,931,933,938,941,940,936,932,933,933,931,928,928,927,928,933,932,937,934,932,933,933,933,933,931,927,931,937,937,937,935,933,931,929,933,934,931,930,932,933,940,939,939,936,938,939,941,943,940,938,940,940,939,937,936,935,938,944,946,948,947,943,944,943,944,942,939,935,938,943,948,945,946,945,945,944,946,943,946,948,949,951,957,960,960,959,959,959,955,951,948,949,951,956,957,956,953,950,952,951,949,949,947,942,948,950,952,951,949,943,941,940,939,936,933,929,930,931,932,935,934,932,934,934,935,935,930,931,934,936,937,939,940,940,943,945,951,951,949,952,954,958,958,953,948,947,951,954,957,959,957,957,957,960,957,959,963,963,963,965,966,966,966,963,966,964,967,963,957,958,960,963,967,963,955,946,935,927,923,918,922,931,944,963,978,990,999,1005,1009,1018,1023,1033,1050,1076,1109,1138,1155,1152,1140,1125,1115,1093,1067,1037,1013,993,982,975,970,969,966,960,964,963,964,963,961,959,964,967,967,967,967,961,962,964,967,969,967,964,966,969,971,971,969,966,971,972,975,973,971,966,972,974,976,977,977,972,973,979,980,978,976,973,977,979,983,984,982,979,976,979,981,979,977,975,977,984,989,989,991,987,986,984,986,989,986,986,992,997,999,1000,997,993,996,996,995,997,996,1000,1000,1004,1007,1005,1000,995,999,1001,1004,1006,1007,1004,1007,1007,1009,1006,1001,999,1002,997,1000,999,997,993,988,989,990,984,981,976,975,974,972,973,969,967,965,967,966,959,960,957,957,957,957,957,953,950,950,953,953,952,948,945,947,953,955,954,949,945,945,946,946,947,945,948,948,947,947,944,939,935,934,935,940,942,941,943,940,937,936,932,932,932,937,938,937,934,931,926,928,929,932,930,934,929,930,931,932,930,929,928,929,934,933,936,932,930,932,935,936,937,934,931,934,939,940,940,938,934,933,934,936,935,936,936,937,939,943,940,937,935,933,937,941,941,939,938,938,940,941,942,943,946,950,953,954,952,945,939,939,943,947,945,945,943,941,938,939,938,934,931,936,935,938,931,925,920,917,919,922,925,925,923,922,922,923,924,922,921,927,931,934,937,936,937,940,940,939,938,938,940,943,948,950,943,947,947,945,947,950,948,949,947,950,951,952,948,947,944,945,944,945,943,933,921,910,904,907,915,922,934,949,963,975,984,988,999,1026,1063,1104,1131,1137,1126,1108,1089,1063,1029,1002,982,969,961,962,961,964,959,960,960,962,961,959,957,959,964,965,964,962,962,961,965,967,966,963,966,968,970,970,970,967,966,968,971,972,971,970,971,975,976,978,977,973,970,974,975,979,979,979,979,978,982,979,981,980,979,982,988,993,994,992,988,989,990,993,990,994,994,1001,1004,1006,1004,999,996,998,1005,1008,1011,1012,1008,1007,1007,1007,1009,1008,1010,1014,1016,1020,1017,1013,1006,1007,1010,1011,1007,1006,1003,1005,1001,1003,998,994,991,990,988,989,988,983,979,978,979,980,973,971,968,971,974,972,972,971,970,970,967,966,963,957,959,963,965,967,965,967,965,959,961,961,958,958,960,961,964,963,958,953,949,951,954,958,959,957,954,951,951,947,947,948,950,953,955,949,950,947,946,948,952,953,956,954,951,952,951,948,952,953,951,951,955,956,956,955,953,954,954,957,957,958,956,958,960,962,965,962,960,957,959,963,965,964,966,970,969,968,965,964,962,963,969,971,972,973,970,970,972,974,978,981,979,979,978,977,980,977,974,971,972,976,979,976,972,969,966,965,965,962,960,963,966,968,964,958,955,955,958,961,959,961,960,958,960,964,965,965,967,971,975,980,983,983,982,982,983,982,982,982,980,984,986,990,994,992,992,990,995,999,998,997,994,997,999,1002,1002,999,996,994,997,996,993,990,984,977,971,969,975,984,996,1010,1026,1043,1053,1064,1072,1090,1122,1164,1193,1199,1187,1172,1158,1138,1104,1069,1041,1023,1012,1009,1008,1006,1009,1009,1015,1016,1016,1009,1008,1009,1012,1017,1018,1018,1018,1017,1019,1019,1019,1016,1014,1021,1021,1024,1024,1023,1027,1027,1024,1023,1025,1024,1025,1025,1027,1031,1032,1031,1028,1029,1031,1033,1034,1030,1029,1031,1037,1043,1044,1043,1039,1040,1040,1040,1041,1042,1042,1047,1049,1050,1042,1044,1041,1042,1047,1050,1054,1055,1052,1055,1054,1055,1054,1050,1052,1054,1058,1062,1065,1063,1058,1056,1058,1059,1058,1057,1057,1059,1061,1063,1062,1059,1055,1054,1053,1052,1052,1043,1040,1039,1040,1040,1033,1031,1027,1027,1027,1026,1025,1018,1016,1017,1015,1019,1016,1012,1009,1008,1006,1009,1008,1007,1005,1004,1007,1008,1006,999,998,997,997,998,997,998,999,1000,1001,1000,996,994,990,992,995,998,998,996,993,993,990,987,986,984,983,988,989,991,990,984,979,973,981,980,982,980,980,982,983,982,982,980,975,975,980,981,982,979,979,978,980,981,979,976,976,976,981,984,983,982,981,981,982,985,985,984,981,981,985,987,989,987,985,984,987,987,986,983,983,985,992,992,991,989,986,983,983,990,992,995,994,997,999,1002,1001,998,995,997,998,1001,1000,999,1000,997,992,990,989,987,987,991,994,995,990,985,983,978,978,980,980,975,975,976,975,977,975,976,976,981,981,989,986,986,984,986,986,991,992,994,994,994,997,998,996,996,993,996,998,1000,1001,996,999,999,1002,1003,1002,996,996,996,1000,1004,1007,1006,1002,1001,996,989,977,964,957,964,975,990,1001,1010,1017,1026,1036,1048,1066,1094,1129,1166,1194,1204,1189,1167,1139,1114,1088,1069,1049,1032,1021,1016,1013,1014,1014,1017,1015,1020,1023,1025,1025,1022,1018,1020,1020,1025,1026,1027,1026,1028,1029,1032,1031,1025,1025,1027,1033,1037,1037,1036,1032,1035,1037,1040,1041,1040,1038,1039,1043,1043,1046,1045,1044,1046,1046,1045,1045,1044,1041,1046,1050,1052,1056,1054,1052,1055,1053,1053,1054,1052,1052,1056,1062,1065,1066,1066,1065,1064,1062,1064,1062,1062,1063,1069,1073,1073,1075,1075,1068,1069,1070,1074,1075,1079,1077,1081,1081,1083,1082,1079,1074,1074,1078,1076,1077,1075,1072,1073,1072,1071,1067,1062,1059,1059,1059,1060,1058,1056,1051,1050,1048,1046,1047,1042,1038,1039,1038,1038,1040,1038,1035,1035,1036,1036,1034,1031,1027,1027,1027,1030,1032,1031,1027,1026,1029,1030,1026,1024,1019,1021,1021,1024,1023,1025,1023,1025,1023,1021,1018,1011,1010,1012,1011,1017,1018,1018,1015,1015,1014,1013,1010,1006,1005,1008,1010,1013,1011,1010,1007,1003,1006,1005,1007,1006,1006,1008,1008,1011,1011,1009,1005,1006,1007,1012,1010,1009,1006,1008,1013,1014,1013,1009,1007,1006,1008,1010,1011,1011,1011,1013,1012,1016,1015,1017,1015,1018,1018,1017,1017,1015,1016,1019,1020,1022,1024,1022,1021,1021,1020,1025,1022,1019,1016,1016,1023,1027,1028,1026,1022,1022,1023,1023,1024,1024,1027,1028,1032,1034,1039,1039,1036,1031,1030,1029,1026,1023,1020,1025,1028,1027,1028,1028,1025,1021,1022,1024,1024,1022,1021,1022,1022,1021,1023,1016,1010,1009,1008,1007,1005,1007,1009,1012,1013,1016,1015,1011,1010,1012,1012,1012,1015,1019,1018,1023,1027,1032,1033,1033,1030,1033,1033,1035,1034,1030,1032,1038,1041,1045,1046,1044,1043,1040,1045,1047,1043,1042,1044,1044,1046,1051,1051,1050,1047,1047,1047,1048,1046,1050,1049,1048,1045,1041,1028,1019,1013,1024,1039,1055,1072,1086,1092,1097,1104,1109,1117,1140,1175,1217,1246,1260,1255,1240,1224,1201,1175,1141,1113,1093,1080,1073,1069,1071,1071,1069,1066,1066,1066,1069,1065,1063,1063,1067,1072,1073,1072,1073,1069,1070,1072,1071,1072,1072,1073,1075,1079,1080,1079,1079,1080,1083,1081,1083,1084,1080,1082,1085,1088,1090,1090,1090,1086,1085,1086,1090,1089,1091,1089,1095,1099,1103,1104,1101,1099,1094,1098,1100,1100,1104,1103,1110,1110,1112,1112,1104,1099,1102,1104,1109,1110,1113,1112,1114,1116,1118,1117,1112,1110,1111,1116,1116,1121,1121,1121,1124,1126,1124,1124,1117,1117,1120,1123,1123,1123,1122,1123,1129,1128,1129,1125,1119,1118,1119,1120,1120,1119,1116,1115,1111,1110,1108,1102,1101,1095,1095,1093,1090,1090,1089,1087,1084,1083,1086,1084,1082,1079,1076,1079,1077,1077,1075,1072,1075,1077,1077,1072,1070,1067,1068,1067,1066,1068,1066,1068,1067,1069,1069,1067,1063,1060,1058,1059,1057,1058,1058,1058,1060,1062,1062,1057,1052,1046,1047,1048,1048,1044,1045,1048,1047,1050,1050,1044,1041,1034,1034,1036,1038,1035,1037,1037,1038,1038,1037,1039,1034,1026,1026,1028,1028,1030,1028,1028,1029,1032,1031,1028,1026,1020,1021,1027,1028,1029,1028,1029,1031,1033,1033,1031,1030,1029,1030,1030,1033,1032,1029,1029,1030,1034,1036,1036,1034,1031,1032,1034,1036,1035,1033,1033,1034,1033,1036,1034,1035,1034,1036,1037,1036,1033,1031,1025,1026,1030,1033,1036,1035,1037,1039,1041,1039,1037,1037,1034,1035,1041,1043,1047,1046,1041,1041,1040,1039,1036,1031,1026,1027,1031,1033,1032,1030,1028,1029,1028,1025,1025,1021,1021,1020,1020,1021,1022,1019,1018,1014,1013,1009,1007,1004,1003,1007,1008,1012,1010,1010,1006,1009,1011,1013,1011,1008,1008,1013,1018,1021,1019,1022,1020,1026,1028,1029,1027,1024,1021,1022,1024,1026,1026,1027,1026,1026,1032,1032,1035,1033,1031,1035,1038,1037,1036,1031,1031,1033,1036,1036,1039,1041,1037,1037,1035,1037,1034,1029,1026,1025,1021,1017,1013,1004,995,988,989,993,998,1003,1010,1020,1029,1040,1049,1057,1064,1075,1081,1092,1103,1122,1139,1166,1195,1214,1222,1221,1211,1200,1189,1170,1140,1113,1093,1076,1059,1050,1042,1038,1039,1036,1041,1045,1043,1045,1041,1039,1044,1043,1040,1036,1036,1038,1041,1044,1044,1045,1040,1043,1046,1046,1047,1042,1044,1046,1047,1049,1049,1048,1045,1047,1046,1046,1048,1047,1047,1048,1050,1049,1049,1045,1045,1047,1054,1053,1053,1055,1055,1055,1054,1056,1055,1053,1052,1052,1053,1055,1055,1054,1057,1061,1063,1065,1063,1061,1058,1055,1057,1058,1058,1056,1059,1063,1068,1070,1067,1064,1063,1061,1063,1063,1061,1060,1060,1064,1067,1070,1075,1073,1072,1071,1070,1072,1070,1068,1068,1073,1076,1080,1079,1080,1076,1076,1076,1076,1076,1073,1074,1075,1080,1081,1080,1076,1075,1078,1075,1074,1071,1068,1064,1064,1063,1065,1063,1060,1059,1054,1057,1055,1051,1048,1045,1046,1047,1046,1045,1040,1039,1038,1040,1039,1039,1035,1034,1031,1031,1033,1029,1027,1024,1022,1023,1028,1028,1027,1025,1025,1026,1024,1024,1019,1016,1017,1018,1020,1019,1021,1019,1018,1016,1015,1014,1012,1007,1011,1015,1015,1016,1014,1014,1016,1016,1015,1011,1007,1005,1005,1005,1008,1007,1008,1007,1006,1003,1007,1006,1001,997,999,1001,1002,1004,1002,1000,1002,1004,1007,1006,1001,999,997,997,999,1000,996,996,999,1001,1004,1002,998,997,998,999,1002,1001,999,998,1000,1002,1004,1002,1003,1000,1004,1006,1005,1007,1004,1003,1003,1004,1006,1005,1006,1005,1006,1007,1011,1007,1007,1005,1004,1006,1005,1005,1007,1005,1007,1008,1012,1011,1010,1008,1005,1005,1006,1003,1001,1001,1002,1011,1016,1017,1016,1018,1022,1024,1021,1020,1014,1014,1013,1015,1017,1017,1016,1018,1018,1016,1010,1009,1004,1001,1003,1006,1003,1005,1005,1007,1008,1010,1009,1007,1003,1001,998,997,999,996,992,991,993,995,994,993,994,988,989,989,990,992,991,990,994,995,998,998,998,1002,1001,1007,1012,1012,1015,1014,1014,1012,1012,1011,1009,1012,1016,1018,1019,1017,1014,1013,1015,1015,1022,1022,1021,1021,1024,1023,1024,1022,1022,1017,1020,1022,1023,1022,1022,1021,1023,1023,1022,1015,1003,991,986,982,985,995,1008,1016,1028,1036,1043,1049,1052,1055,1059,1072,1089,1114,1147,1181,1205,1215,1202,1188,1166,1136,1109,1088,1075,1062,1049,1042,1036,1036,1034,1032,1030,1029,1033,1035,1039,1040,1040,1040,1041,1043,1044,1040,1041,1041,1044,1046,1048,1048,1045,1045,1047,1047,1050,1047,1051,1048,1049,1049,1051,1053,1051,1051,1054,1058,1058,1060,1057,1057,1057,1059,1060,1058,1058,1058,1062,1067,1065,1064,1063,1059,1062,1063,1068,1070,1071,1074,1073,1074,1073,1072,1072,1068,1069,1073,1077,1080,1082,1080,1080,1079,1081,1082,1079,1079,1086,1089,1094,1094,1092,1092,1090,1090,1090,1089,1087,1088,1090,1095,1099,1099,1096,1092,1091,1090,1089,1091,1088,1086,1086,1088,1090,1086,1082,1077,1076,1078,1076,1073,1069,1062,1065,1064,1066,1063,1062,1055,1055,1057,1056,1053,1050,1046,1050,1050,1051,1049,1046,1043,1043,1041,1042,1040,1042,1041,1043,1043,1043,1041,1037,1032,1032,1029,1034,1033,1032,1034,1036,1035,1031,1031,1026,1022,1024,1026,1028,1028,1032,1029,1026,1026,1022,1019,1013,1014,1019,1020,1024,1024,1019,1015,1016,1018,1017,1016,1015,1013,1018,1019,1021,1020,1018,1011,1011,1014,1017,1016,1016,1014,1015,1017,1017,1014,1011,1012,1015,1018,1018,1018,1019,1019,1017,1020,1023,1018,1015,1015,1017,1019,1023,1021,1023,1019,1019,1020,1019,1016,1014,1015,1020,1022,1025,1024,1017,1017,1019,1022,1023,1026,1030,1030,1031,1027,1025,1020,1014,1014,1015,1020,1021,1021,1019,1013,1008,1007,1007,1007,1006,1005,1006,1005,1004,1000,994,987,988,989,992,994,994,992,993,993,992,991,990,991,993,998,998,1005,1007,1007,1008,1008,1006,1003,1002,1004,1007,1007,1014,1016,1014,1011,1013,1014,1015,1013,1014,1014,1014,1017,1014,1015,1010,1006,1005,1007,1004,998,982,967,963,967,976,989,1004,1020,1038,1050,1059,1064,1072,1093,1133,1175,1199,1200,1185,1168,1153,1119,1078,1046,1022,1013,1011,1013,1013,1014,1009,1008,1008,1008,1010,1013,1014,1014,1014,1015,1012,1011,1012,1013,1014,1015,1017,1018,1014,1011,1014,1019,1019,1020,1018,1017,1022,1024,1024,1026,1023,1023,1024,1023,1022,1024,1026,1027,1031,1032,1029,1026,1021,1022,1024,1030,1034,1038,1033,1029,1028,1029,1032,1034,1035,1036,1039,1042,1042,1042,1037,1034,1036,1039,1045,1047,1047,1044,1044,1041,1041,1042,1039,1040,1041,1046,1049,1044,1041,1035,1033,1035,1033,1032,1030,1029,1027,1025,1020,1016,1010,1010,1010,1009,1008,1005,997,997,997,995,994,995,991,991,991,995,992,990,988,985,981,985,984,985,983,983,986,987,988,988,981,977,975,977,978,979,980,977,976,972,972,970,965,966,971,976,975,970,966,962,960,961,963,964,965,967,969,968,965,961,959,959,963,965,966,966,966,956,957,962,963,963,963,961,964,967,968,967,963,964,967,968,969,970,969,967,968,971,970,968,966,964,965,967,972,973,971,970,970,971,970,971,968,968,969,972,977,979,977,975,972,977,977,983,986,986,984,984,980,976,971,970,968,970,974,974,970,964,965,965,965,963,962,960,964,965,964,959,952,946,944,950,954,955,955,955,955,957,953,952,952,953,954,963,970,970,970,969,968,967,966,969,968,968,971,976,977,979,979,976,981,979,976,979,977,978,981,981,980,982,977,976,974,976,973,968,960,951,939,935,939,946,953,962,975,987,999,1008,1014,1024,1039,1063,1100,1137,1159,1159,1149,1130,1107,1078,1047,1020,1001,989,984,984,982,984,987,991,992,989,986,982,986,987,991,991,992,990,991,993,994,991,992,992,995,997,998,1002,999,998,1003,1005,1004,1000,1002,1003,1003,1007,1011,1006,1009,1008,1012,1012,1011,1012,1009,1006,1012,1015,1019,1020,1018,1014,1014,1016,1018,1019,1015,1020,1024,1024,1027,1031,1028,1024,1025,1027,1027,1031,1033,1035,1041,1041,1042,1040,1036,1031,1034,1037,1041,1041,1043,1041,1044,1044,1044,1043,1039,1043,1046,1051,1052,1052,1047,1046,1044,1042,1041,1036,1034,1032,1033,1034,1031,1029,1022,1018,1017,1017,1017,1016,1014,1011,1015,1013,1012,1011,1006,1004,1002,1006,1003,1001,1001,999,1003,1006,1006,1002,1000,995,994,996,997,998,995,995,999,997,997,994,995,992,988,993,997,996,995,993,991,989,986,979,980,978,987,990,994,991,989,982,979,980,983,982,982,984,987,987,987,984,976,976,974,980,982,984,983,981,981,985,982,986,984,982,985,989,991,991,990,987,986,988,992,991,991,989,992,991,989,992,991,989,992,995,995,993,992,992,993,994,996,1000,1002,1002,999,1003,1001,996,991,988,987,995,997,1005,1008,1011,1011,1010,1008,1009,1008,1009,1010,1013,1016,1015,1010,1008,1007,1007,1007,1005,1001,1003,1007,1009,1008,1004,1001,1000,998,997,996,995,995
