976,981,977,972,968,966,969,977,983,985,981,977,975,978,977,973,971,969,971,972,969,966,965,966,971,972,972,973,970,961,953,954,960,962,957,954,951,952,950,950,953,956,958,961,962,963,962,957,950,951,956,956,959,958,959,965,972,975,971,966,955,951,952,955,958,960,959,956,956,958,969,988,1023,1061,1099,1130,1160,1179,1190,1187,1160,1127,1089,1037,975,917,869,845,846,865,889,914,935,946,956,961,963,963,955,947,951,952,959,967,975,974,971,971,973,976,981,986,990,989,988,991,994,994,994,996,1001,1013,1019,1013,1006,1005,1011,1024,1030,1042,1044,1039,1032,1034,1046,1053,1057,1054,1049,1047,1055,1063,1065,1059,1052,1052,1053,1056,1052,1045,1035,1030,1026,1027,1028,1025,1020,1014,1004,995,993,993,994,990,987,983,978,978,979,980,983,981,977,971,967,966,969,969,966,962,960,963,968,969,969,960,960,960,963,962,960,957,960,969,979,979,977,972,969,970,980,988,992,992,993,995,995,989,983,975,972,975,978,980,968,960,957,962,972,977,977,966,957,957,960,962,960,955,959,964,967,966,966,966,970,973,973,968,958,951,959,965,972,975,972,970,973,967,959,948,949,954,962,963,966,960,958,959,963,963,968,970,974,988,1013,1045,1076,1105,1133,1156,1175,1184,1169,1139,1109,1068,1005,934,875,840,836,854,877,897,916,933,948,956,961,960,964,965,967,967,971,975,978,981,978,975,977,981,982,985,990,991,990,990,990,990,991,992,996,1001,1004,999,995,1000,1006,1019,1025,1025,1023,1027,1030,1038,1044,1045,1044,1044,1049,1061,1071,1072,1066,1060,1055,1055,1065,1064,1064,1058,1056,1053,1052,1051,1052,1053,1059,1063,1064,1058,1044,1025,1013,1015,1020,1024,1016,1008,997,991,992,993,991,985,986,987,991,990,990,990,986,981,976,972,970,974,975,978,979,979,975,973,975,979,983,981,972,962,958,964,973,974,972,969,973,977,979,980,981,979,982,985,990,992,989,989,986,989,996,996,995,994,988,986,989,987,983,979,975,973,964,960,962,972,984,984,980,970,965,961,963,968,971,968,965,962,964,967,966,963,965,965,969,973,972,968,966,971,975,972,971,968,963,961,966,973,980,976,970,965,964,970,974,975,973,976,991,1014,1039,1060,1082,1110,1141,1166,1183,1175,1145,1107,1065,1006,945,885,852,851,872,898,914,928,939,954,964,972,978,981,980,974,970,977,986,988,991,990,988,982,981,984,986,988,989,995,999,1007,1006,1002,1003,1004,1012,1021,1023,1019,1017,1016,1024,1025,1021,1022,1030,1042,1058,1059,1055,1055,1055,1060,1063,1061,1056,1056,1058,1064,1070,1068,1063,1054,1060,1066,1069,1063,1052,1040,1034,1036,1041,1042,1041,1036,1026,1014,1008,1000,995,994,992,990,989,982,978,978,978,987,990,987,986,983,983,981,979,975,975,980,985,983,981,980,981,980,979,980,987,988,987,988,989,989,982,979,977,977,981,983,991,998,1001,1001,1003,1005,1002,998,991,989,986,987,989,986,983,985,988,986,986,983,984,982,985,982,980,979,977,974,973,971,972,974,976,975,974,977,981,982,978,972,978,986,992,987,978,980,984,983,980,968,965,963,964,970,979,982,984,980,972,973,978,981,978,977,983,996,1016,1039,1057,1077,1101,1128,1155,1170,1176,1164,1137,1100,1041,973,912,870,857,871,899,915,926,930,935,951,964,975,978,981,982,985,982,979,976,976,981,987,992,992,992,988,990,998,1003,1006,1007,1002,1002,1005,1011,1012,1014,1018,1020,1024,1028,1032,1036,1038,1043,1049,1049,1051,1047,1049,1055,1062,1067,1067,1066,1065,1067,1070,1076,1076,1075,1077,1075,1076,1073,1062,1056,1052,1051,1051,1051,1047,1044,1035,1029,1025,1021,1019,1016,1009,1006,1009,1009,1007,1000,993,990,987,984,978,981,984,991,990,983,981,979,982,986,987,986,983,979,978,978,977,978,983,986,987,989,990,996,994,988,982,984,989,996,999,1000,1004,1004,1005,1003,1000,996,996,994,996,993,990,991,987,984,984,983,983,985,986,985,987,989,989,981,973,973,978,982,982,979,975,972,973,977,982,982,978,976,975,983,984,981,976,976,978,983,985,983,982,983,987,995,995,992,987,984,994,1013,1043,1074,1102,1132,1170,1195,1204,1189,1155,1115,1063,993,923,874,869,886,909,928,941,952,964,971,976,977,978,983,986,995,1000,1001,990,983,984,991,996,999,999,999,1002,1009,1017,1023,1019,1006,1001,1007,1014,1018,1021,1027,1033,1041,1042,1046,1048,1054,1059,1061,1063,1066,1071,1072,1075,1074,1076,1081,1086,1084,1076,1073,1074,1076,1069,1061,1060,1061,1062,1055,1045,1036,1030,1028,1026,1023,1016,1013,1013,1014,1012,1010,1007,1000,1000,996,991,986,983,982,986,988,990,993,991,987,977,972,974,984,992,988,981,981,989,996,996,990,986,988,993,997,998,993,992,999,1009,1013,1009,1007,1006,1005,1007,1003,1007,1006,998,987,980,989,998,991,978,974,974,979,979,976,974,977,983,989,989,984,975,971,973,979,982,982,981,986,990,991,979,972,972,979,984,987,984,982,982,982,983,986,985,984,980,979,987,1005,1033,1069,1102,1134,1166,1191,1205,1199,1170,1138,1095,1033,962,904,869,869,890,913,939,958,971,979,982,983,981,979,978,979,984,992,1000,1005,1006,1007,1004,998,994,997,1006,1016,1017,1017,1006,997,994,1000,1013,1023,1025,1020,1022,1031,1044,1051,1046,1040,1044,1055,1068,1078,1074,1070,1067,1073,1077,1081,1079,1076,1075,1076,1086,1091,1086,1068,1056,1050,1052,1057,1051,1048,1047,1052,1055,1046,1034,1018,1011,1010,1012,1010,1002,995,992,998,1000,999,993,986,984,988,990,988,987,983,983,989,991,989,982,978,976,983,987,993,994,991,987,994,1002,1005,1002,992,985,989,999,1010,1017,1010,1004,1000,1000,995,991,992,997,1001,999,998,998,997,992,992,997,995,985,972,966,974,985,990,988,984,980,977,981,989,990,984,978,977,981,985,984,991,992,988,980,978,983,990,992,990,988,988,983,976,971,975,980,992,1004,1027,1065,1101,1133,1166,1190,1205,1203,1181,1145,1100,1032,952,885,863,882,911,925,930,942,968,987,992,984,980,977,982,991,996,998,999,993,994,996,1005,1007,1003,1003,1006,1008,1016,1018,1019,1022,1017,1020,1018,1019,1025,1031,1040,1049,1057,1065,1066,1063,1065,1068,1073,1068,1062,1062,1067,1077,1074,1069,1069,1071,1076,1078,1075,1072,1072,1073,1072,1074,1076,1068,1058,1043,1035,1029,1027,1025,1022,1013,1003,1002,1007,1006,1000,996,998,1001,1005,1005,999,988,992,994,997,995,991,987,986,992,988,984,981,979,985,987,990,992,994,996,998,1004,1005,1004,1000,997,997,1004,1009,1007,1004,1006,1010,1007,1006,1001,998,999,1002,1004,999,993,988,989,992,995,993,993,987,974,967,970,973,978,975,975,978,983,988,991,991,991,987,989,990,987,983,978,978,979,985,992,995,994,995,992,981,972,969,974,978,983,993,1016,1045,1066,1091,1123,1156,1179,1182,1167,1139,1107,1062,997,935,887,861,866,890,911,924,936,947,964,976,982,980,982,988,997,999,992,985,986,991,996,1003,1008,1004,998,989,990,997,1006,1009,1010,1014,1016,1019,1021,1019,1027,1038,1045,1050,1049,1051,1052,1055,1059,1061,1060,1056,1057,1062,1067,1071,1073,1071,1071,1076,1080,1076,1071,1066,1064,1060,1059,1051,1046,1044,1040,1036,1035,1029,1022,1016,1008,1007,1010,1013,1011,1004,995,987,989,990,987,986,988,987,981,977,973,970,973,984,991,993,992,990,984,982,979,982,983,983,983,988,988,986,986,985,987,991,997,1002,1006,1004,1001,1000,1005,1003,996,990,990,992,996,993,991,986,979,974,978,988,995,995,987,980,976,972,971,974,979,978,975,974,975,977,976,980,982,985,983,977,966,969,975,980,984,978,973,975,979,980,978,973,974,978,981,981,978,978,981,990,1008,1033,1060,1077,1096,1126,1159,1179,1189,1176,1146,1106,1047,977,911,863,851,868,893,910,923,936,949,960,972,979,980,978,979,983,989,988,982,977,975,979,983,994,999,999,997,998,1003,1004,1005,1003,1008,1013,1026,1032,1032,1024,1022,1019,1023,1034,1038,1042,1043,1041,1049,1055,1057,1057,1057,1062,1065,1071,1070,1066,1064,1070,1074,1072,1062,1053,1052,1058,1065,1067,1058,1045,1035,1027,1027,1026,1023,1014,1003,1002,1003,1001,993,990,984,983,982,981,979,973,968,973,978,983,983,975,973,975,978,985,985,982,980,978,981,981,980,982,979,973,970,974,980,988,990,990,985,982,981,984,985,989,995,1001,1003,997,993,989,984,984,987,983,975,976,982,984,985,987,987,987,984,981,975,969,963,965,968,967,971,973,971,970,972,979,981,980,978,975,972,970,968,967,964,965,969,978,989,992,986,979,973,973,976,980,975,974,969,967,971,977,989,1009,1043,1075,1106,1134,1161,1180,1193,1194,1174,1139,1111,1076,1032,967,904,861,850,862,885,906,922,932,938,946,950,960,964,967,970,978,982,988,992,993,991,991,990,989,988,986,989,986,987,986,992,995,997,998,1008,1017,1020,1017,1012,1012,1012,1020,1029,1034,1034,1038,1042,1047,1051,1048,1042,1047,1055,1064,1065,1063,1064,1063,1057,1056,1059,1065,1068,1065,1066,1061,1061,1065,1064,1065,1059,1052,1044,1031,1025,1025,1031,1030,1024,1015,1010,1004,999,1003,1009,1008,1002,991,983,984,985,981,979,979,982,986,978,972,971,980,991,994,983,969,966,967,973,975,975,978,985,984,982,979,981,980,984,990,997,996,991,989,990,992,998,998,998,994,987,988,990,992,989,987,985,981,977,975,974,975,970,964,964,966,967,966,960,958,960,970,972,975,974,979,982,978,975,972,975,977,978,974,971,973,974,975,974,972,969,967,962,961,959,968,964,965,961,967,975,976,974,976,990,1022,1063,1106,1144,1175,1193,1201,1192,1167,1131,1089,1035,970,911,872,862,873,890,903,909,924,938,953,964,969,973,979,983,977,967,962,960,959,965,969,972,976,979,981,987,992,999,1005,1009,1002,1005,1008,1007,999,994,994,1005,1016,1020,1020,1021,1028,1032,1035,1038,1041,1042,1042,1041,1044,1051,1057,1055,1053,1054,1055,1058,1065,1072,1075,1072,1062,1054,1044,1042,1043,1035,1026,1017,1009,1007,1007,1008,1008,1007,1007,1003,998,998,996,989,985,978,977,977,978,975,978,979,976,972,971,975,974,973,972,967,965,968,969,968,964,960,957,962,967,973,974,975,976,979,978,978,982,981,980,983,984,983,983,991,1001,1002,991,988,982,976,969,970,977,985,986,979,967,958,956,957,960,961,958,962,967,969,969,965,959,963,973,983,982,977,968,962,956,960,957,956,954,956,961,962,964,966,963,965,971,973,972,967,961,955,953,960,967,976,972,969,970,969,970,975,993,1023,1060,1097,1129,1152,1174,1188,1198,1186,1148,1103,1069,1031,973,916,867,840,842,859,884,902,914,924,936,946,957,965,970,967,970,977,985,981,972,964,966,970,978,983,977,966,961,965,974,981,985,988,990,989,988,993,997,1003,1003,1002,1013,1027,1034,1033,1023,1019,1024,1033,1036,1036,1032,1030,1032,1036,1041,1047,1047,1045,1046,1052,1060,1062,1053,1045,1042,1047,1051,1052,1050,1052,1051,1048,1038,1029,1021,1016,1017,1019,1022,1012,996,991,997,997,994,986,983,986,991,987,977,970,964,963,969,974,973,962,958,960,965,970,969,964,958,952,951,954,956,958,958,961,962,966,967,966,967,972,977,978,974,968,969,975,983,990,993,997,999,997,987,980,982,982,977,971,966,960,964,963,961,965,966,968,971,961,953,950,955,962,963,961,957,956,958,958,956,957,952,951,959,965,965,962,959,957,961,967,966,956,950,953,956,957,958,961,963,965,963,964,965,964,961,958,965,984,1005,1025,1042,1063,1095,1129,1153,1163,1153,1127,1097,1061,1005,938,885,852,844,855,870,881,897,916,938,959,970,971,965,955,953,965,980,989,990,978,959,956,959,964,969,970,976,986,989,991,988,992,997,995,990,990,994,1001,1008,1019,1024,1022,1018,1020,1027,1035,1038,1037,1033,1032,1038,1045,1048,1046,1042,1042,1049,1050,1044,1031,1027,1027,1036,1042,1046,1039,1031,1029,1027,1021,1017,1007,996,992,989,989,983,977,973,970,968,967,966,967,962,966,968,971,968,961,952,946,948,955,959,957,955,955,959,961,958,951,944,946,956,972,980,983,983,973,956,944,940,944,949,954,961,966,972,974,977,981,989,998,1002,992,975,956,945,943,947,950,953,955,965,977,977,978,974,968,960,958,957,954,945,934,928,932,938,947,945,950,953,960,956,954,948,947,948,948,952,954,954,954,953,955,956,960,956,957,960,960,960,958,956,954,954,955,957,962,972,987,1010,1036,1062,1087,1113,1137,1155,1165,1149,1122,1091,1049,987,921,864,832,833,853,876,892,903,917,928,939,947,953,956,952,951,953,958,965,968,975,974,969,961,961,962,967,970,972,976,981,985,983,977,975,978,984,990,996,1004,1007,1014,1014,1007,1001,1002,1007,1014,1024,1033,1031,1030,1029,1033,1036,1040,1045,1046,1039,1036,1041,1049,1049,1043,1035,1040,1046,1043,1040,1037,1037,1040,1031,1013,992,983,987,989,991,988,983,980,980,981,981,981,976,971,972,972,974,977,984,987,980,965,960,961,959,953,951,951,955,953,950,950,958,970,975,967,953,943,943,951,958,961,955,955,958,962,970,974,978,977,978,985,982,970,960,958,958,965,970,968,959,958,961,961,959,959,956,959,958,959,953,948,944,943,946,951,956,962,967,969,962,957,956,952,949,941,941,949,958,964,966,962,956,951,954,958,955,947,943,951,958,956,957,953,954,959,963,967,983,1011,1047,1081,1113,1142,1164,1176,1163,1129,1090,1048,987,921,864,830,834,852,877,892,908,928,943,950,949,942,943,951,955,957,959,960,961,968,971,971,967,969,974,978,975,972,964,959,962,970,981,983,981,983,986,995,1001,998,998,999,1001,1006,1012,1016,1017,1018,1023,1027,1030,1029,1030,1030,1037,1043,1047,1046,1041,1037,1038,1042,1045,1049,1049,1038,1030,1024,1028,1028,1019,1009,1010,1021,1037,1035,1016,987,964,957,956,958,954,956,956,959,960,960,956,951,952,957,963,965,966,967,978,980,972,956,946,943,948,951,955,955,958,957,958,968,978,986,983,972,960,954,959,966,975,978,983,990,992,982,969,962,961,963,966,965,965,963,959,953,947,947,953,952,946,937,934,937,940,940,942,946,951,953,951,944,935,931,938,942,946,943,944,950,954,957,956,953,947,945,947,949,955,955,953,954,957,961,962,960,955,954,958,964,985,1015,1046,1078,1107,1139,1162,1174,1168,1140,1109,1072,1024,955,894,854,840,846,864,884,905,924,938,949,951,946,943,941,949,955,958,954,953,955,963,968,967,970,969,970,975,976,978,979,980,984,990,990,987,986,990,1000,1009,1012,1015,1016,1019,1019,1017,1022,1026,1028,1026,1027,1032,1037,1035,1036,1043,1052,1061,1057,1054,1047,1041,1042,1048,1045,1042,1038,1031,1024,1013,999,992,991,994,997,1003,1005,999,986,966,956,956,960,959,953,957,964,964,960,956,960,960,957,960,960,954,947,940,945,953,960,959,955,955,958,961,962,963,964,970,966,967,968,969,972,979,980,981,976,968,964,961,963,963,957,954,956,960,960,959,961,956,953,947,948,950,953,952,947,948,955,958,952,943,939,944,950,960,960,954,949,948,953,957,957,952,947,945,952,958,955,950,945,948,958,961,960,959,969,992,1026,1065,1105,1133,1149,1157,1159,1144,1109,1072,1022,955,895,848,831,842,858,876,895,915,934,948,952,955,960,964,961,952,947,953,969,981,980,971,960,961,974,988,986,967,955,964,984,998,997,994,990,995,998,1003,1002,996,993,993,998,1003,1010,1015,1021,1025,1030,1034,1033,1024,1020,1025,1032,1041,1039,1033,1027,1025,1030,1039,1032,1022,1015,1018,1017,1015,1010,1002,995,993,989,989,985,979,973,973,975,978,977,969,964,961,965,970,967,963,956,957,966,973,968,957,949,944,947,952,958,958,957,958,966,970,973,967,959,952,951,955,960,957,956,958,964,970,975,977,980,982,985,980,973,967,961,957,960,962,960,953,952,953,959,964,966,960,950,945,949,959,962,955,951,951,957,965,965,957,948,944,949,952,949,947,946,948,951,957,953,949,949,954,956,958,958,952,948,951,951,955,949,948,953,966,992,1030,1061,1090,1116,1135,1147,1151,1134,1101,1066,1017,957,901,857,831,829,849,875,899,917,928,936,938,944,949,955,956,959,962,965,967,962,959,960,965,972,978,980,976,974,981,994,999,991,975,970,971,978,988,997,1002,1010,1017,1023,1032,1032,1035,1039,1043,1048,1038,1022,1011,1017,1028,1042,1053,1051,1044,1041,1040,1045,1046,1038,1029,1023,1016,1015,1017,1021,1018,1012,1007,1007,1004,993,974,960,959,963,971,974,969,969,969,966,966,963,965,965,959,954,952,956,961,963,970,970,963,952,950,949,955,958,962,958,959,960,961,966,967,972,975,978,983,980,980,980,985,988,990,984,976,967,954,954,958,960,952,945,946,953,955,954,954,960,962,959,952,947,952,953,953,951,948,952,958,964,965,961,956,947,941,941,946,953,954,958,960,955,951,945,942,943,950,953,957,956,955,960,965,968,973,987,1014,1044,1071,1090,1107,1123,1139,1150,1139,1101,1066,1025,971,912,864,830,827,851,883,906,919,925,931,938,943,950,960,963,959,957,958,962,972,979,980,972,961,960,964,963,961,963,970,980,982,982,986,990,991,996,1003,1008,1007,1009,1010,1014,1012,1010,1012,1017,1023,1027,1033,1036,1035,1032,1034,1040,1044,1044,1038,1032,1036,1040,1050,1050,1042,1034,1027,1029,1033,1031,1024,1010,1002,995,995,996,992,985,979
