1067,1069,1067,1061,1052,1048,1047,1045,1043,1036,1027,1017,1017,1015,1014,1011,1005,998,993,989,987,988,983,984,988,991,988,983,976,976,984,985,982,980,979,976,978,981,982,981,979,980,979,983,982,984,984,987,986,988,989,991,992,996,1001,1003,1003,1000,994,991,985,991,993,989,981,982,982,983,982,979,976,975,976,975,971,970,966,967,970,974,976,979,975,970,969,974,975,971,969,969,974,978,977,972,968,969,974,979,977,972,964,969,973,976,975,972,968,968,973,977,975,978,984,1005,1029,1057,1084,1109,1132,1142,1145,1130,1098,1049,986,921,870,853,861,883,896,910,924,944,957,961,962,968,975,981,982,980,980,978,981,982,984,983,984,982,985,985,989,987,987,988,997,1002,1004,1004,1006,1008,1013,1021,1030,1034,1033,1033,1039,1046,1047,1047,1045,1043,1047,1053,1057,1056,1057,1059,1063,1068,1065,1063,1060,1060,1059,1059,1057,1051,1042,1035,1033,1035,1032,1027,1018,1008,1005,1005,1003,1000,996,995,991,991,988,983,981,978,978,983,985,986,981,977,974,977,978,980,982,981,980,977,973,969,969,976,983,983,978,977,977,983,988,990,988,987,982,984,992,999,1002,1001,1000,996,995,992,987,982,977,977,974,977,977,977,976,977,971,974,973,969,963,962,967,972,974,972,965,964,970,972,975,974,967,966,968,974,973,970,966,967,968,970,969,968,968,969,971,973,974,969,965,964,967,975,990,1008,1029,1057,1090,1119,1138,1143,1130,1108,1071,1011,946,890,853,844,857,882,898,916,931,945,957,969,971,971,971,971,976,982,982,982,980,982,983,982,982,982,981,984,990,993,992,993,995,1000,1002,1004,1007,1010,1014,1018,1022,1024,1029,1027,1026,1026,1031,1038,1042,1046,1044,1046,1048,1055,1057,1055,1051,1050,1054,1063,1066,1062,1055,1050,1055,1059,1054,1045,1039,1033,1030,1030,1029,1024,1018,1014,1014,1014,1006,999,992,989,989,990,986,984,982,981,983,986,983,982,979,977,979,982,979,980,974,972,973,977,976,978,974,974,976,973,974,974,975,980,981,982,984,979,982,982,988,989,987,990,992,992,994,995,997,995,990,990,988,990,989,985,981,980,979,978,976,975,972,975,980,977,975,967,969,972,977,972,975,972,967,964,967,972,972,967,968,970,974,976,976,971,971,970,973,979,981,979,974,971,971,975,977,978,977,975,979,982,979,972,969,980,999,1029,1057,1086,1114,1140,1165,1178,1175,1149,1114,1060,996,933,882,856,853,874,899,918,934,944,951,955,963,972,980,982,979,977,977,979,981,977,980,981,986,990,994,994,998,998,1000,999,1000,1001,1002,1002,1007,1010,1015,1017,1019,1023,1030,1037,1041,1039,1045,1048,1055,1063,1060,1056,1053,1058,1066,1069,1064,1061,1061,1063,1066,1067,1065,1063,1054,1051,1052,1048,1038,1024,1016,1016,1017,1019,1013,1006,999,995,1002,1003,997,987,980,982,986,990,990,987,984,981,976,974,971,970,971,974,976,978,978,978,974,972,977,982,985,985,985,986,988,987,987,985,986,989,998,1001,1001,997,993,991,991,993,989,984,979,978,978,978,978,981,981,982,979,979,975,971,968,967,970,975,972,971,973,972,978,981,979,976,973,973,976,980,980,973,973,972,974,975,979,978,975,975,978,987,988,981,973,970,971,975,978,990,1009,1039,1071,1102,1130,1156,1173,1188,1190,1172,1141,1098,1037,969,908,869,861,868,888,907,924,941,952,962,967,970,975,981,985,982,979,980,985,989,989,986,984,984,987,995,996,995,996,997,1004,1011,1014,1013,1014,1015,1013,1019,1021,1025,1024,1027,1035,1039,1042,1044,1045,1046,1053,1060,1065,1067,1067,1067,1067,1072,1071,1071,1071,1070,1070,1073,1073,1072,1070,1066,1069,1071,1064,1061,1055,1049,1048,1050,1044,1040,1036,1035,1031,1027,1017,1008,1002,999,1000,1003,1000,995,989,986,989,989,994,991,990,984,983,988,986,981,978,980,983,986,982,980,982,982,984,983,982,982,982,985,989,994,995,991,986,984,988,991,995,994,990,993,995,1003,1006,1003,995,993,994,996,995,991,989,986,985,985,985,983,982,983,987,992,988,983,977,974,971,974,976,976,974,981,980,979,973,971,972,976,981,984,981,972,973,976,981,984,981,975,973,974,979,981,975,973,972,973,979,984,984,984,977,974,976,982,985,995,1013,1047,1084,1115,1137,1158,1171,1184,1182,1158,1121,1066,1000,937,892,869,866,877,896,915,933,951,960,970,978,982,987,985,982,979,979,982,986,990,992,995,991,988,989,995,997,998,999,996,998,1005,1013,1015,1011,1009,1015,1024,1031,1031,1027,1025,1032,1038,1043,1043,1043,1048,1052,1060,1057,1057,1057,1064,1067,1071,1073,1077,1077,1077,1078,1079,1069,1063,1060,1063,1066,1063,1060,1053,1047,1044,1044,1043,1035,1027,1020,1019,1016,1016,1010,1006,999,998,1000,1000,996,992,991,992,996,999,996,993,987,984,985,990,986,983,982,983,983,984,984,981,983,984,986,987,986,985,986,986,992,995,994,994,993,997,1000,1006,1008,1005,1006,1007,1007,1006,1001,996,992,992,994,994,990,988,983,985,987,990,987,986,982,975,979,982,981,980,982,985,983,985,983,982,981,981,984,985,985,980,978,979,984,988,985,984,982,983,985,987,982,979,979,979,984,991,989,985,979,978,978,979,977,975,979,998,1021,1050,1074,1098,1124,1153,1179,1194,1199,1182,1153,1127,1084,1035,979,930,891,874,876,890,905,920,931,945,960,973,980,982,980,979,984,988,989,989,990,991,993,995,995,994,993,997,1001,1006,1009,1008,1005,1005,1007,1010,1008,1010,1015,1019,1021,1025,1028,1026,1026,1030,1038,1046,1045,1045,1043,1045,1054,1062,1062,1061,1062,1067,1067,1069,1069,1067,1067,1068,1073,1077,1078,1075,1072,1074,1072,1075,1069,1062,1057,1059,1058,1058,1054,1044,1036,1034,1032,1033,1028,1023,1017,1010,1008,1004,1001,998,996,995,994,997,995,994,988,988,995,997,995,992,987,987,991,992,987,982,977,980,983,985,983,982,981,985,984,989,990,993,991,991,990,998,999,999,999,996,998,1002,1003,1001,1000,1000,998,999,994,988,986,986,985,987,985,983,981,981,983,987,985,982,976,976,978,982,981,974,973,972,973,978,976,975,976,978,980,980,982,979,972,974,974,976,974,973,973,976,982,984,977,976,970,970,974,978,978,971,966,962,967,975,986,1005,1028,1058,1085,1117,1144,1163,1174,1178,1167,1143,1110,1061,1002,943,893,863,859,870,885,906,928,944,957,966,969,970,977,980,980,980,979,981,989,990,988,986,984,986,987,994,997,994,993,995,1004,1012,1014,1012,1009,1016,1022,1024,1023,1022,1025,1026,1032,1036,1038,1039,1042,1046,1050,1057,1057,1058,1058,1061,1060,1060,1061,1060,1061,1061,1060,1061,1059,1056,1053,1050,1049,1047,1041,1037,1032,1031,1028,1023,1019,1008,1006,1004,1001,1001,997,992,986,986,984,989,986,979,979,979,982,981,983,979,978,977,976,976,974,971,975,973,974,977,974,970,973,974,982,989,988,988,986,983,981,983,980,982,983,988,990,995,993,994,992,990,992,990,986,985,981,978,976,978,974,973,973,975,980,976,973,969,971,971,974,973,973,971,969,969,971,972,969,968,967,967,972,974,973,974,971,966,968,969,966,965,966,971,974,975,974,968,963,963,967,967,966,970,977,997,1023,1046,1067,1086,1105,1123,1128,1127,1107,1079,1032,976,922,881,857,856,873,894,911,923,935,944,955,963,968,971,969,967,971,978,983,985,984,983,984,986,989,992,988,988,988,992,995,997,999,1003,1003,1003,1009,1012,1013,1014,1014,1019,1024,1032,1032,1032,1033,1037,1042,1046,1048,1047,1049,1049,1055,1055,1057,1053,1051,1051,1053,1055,1056,1053,1050,1046,1047,1047,1042,1035,1031,1029,1027,1029,1022,1017,1009,1004,1001,998,996,992,989,987,986,984,985,980,974,978,979,981,978,972,972,973,977,983,979,975,972,973,974,977,978,977,976,977,975,977,975,974,972,974,977,983,983,980,977,981,985,987,987,987,989,989,992,994,990,984,983,983,982,980,973,975,974,979,979,981,975,966,965,967,973,978,971,961,957,962,966,969,969,969,966,966,969,974,974,967,961,961,962,965,964,961,964,966,969,972,969,968,962,966,968,966,966,966,971,994,1013,1038,1059,1083,1101,1118,1128,1125,1100,1056,993,925,876,854,861,877,898,918,939,953,956,955,961,965,970,974,976,975,974,971,974,982,985,983,981,985,986,992,989,990,988,993,998,1003,1008,1008,1006,1010,1015,1024,1027,1032,1036,1039,1040,1038,1036,1036,1041,1046,1051,1052,1047,1044,1042,1046,1051,1053,1055,1054,1047,1047,1047,1047,1039,1029,1024,1020,1020,1016,1010,1004,997,994,995,995,992,983,979,976,978,981,978,977,976,978,980,983,974,972,971,970,973,973,973,971,968,969,971,974,974,974,976,977,979,981,978,976,974,977,983,988,990,992,992,991,993,995,993,987,979,977,979,985,983,977,973,976,980,981,981,976,970,968,970,974,972,968,969,972,975,978,973,966,963,964,967,970,971,966,967,963,966,972,969,969,968,967,968,968,968,965,962,965,963,965,964,971,980,1007,1039,1071,1101,1127,1147,1163,1171,1157,1128,1079,1011,938,880,853,853,873,893,913,932,951,961,964,963,965,966,969,971,971,970,969,974,978,977,978,977,978,982,987,988,990,992,995,994,992,994,998,1002,1008,1011,1018,1019,1020,1023,1028,1035,1039,1043,1046,1047,1050,1052,1052,1056,1052,1053,1055,1059,1065,1062,1058,1053,1051,1054,1049,1041,1035,1032,1028,1024,1022,1019,1016,1008,1003,997,994,990,987,985,986,987,982,973,969,968,970,964,965,963,963,965,967,971,978,979,974,966,958,960,966,965,966,970,971,974,976,969,973,971,973,975,980,978,980,980,982,979,981,978,979,979,976,974,973,973,971,973,976,977,973,969,970,967,967,969,972,972,970,972,974,977,982,980,978,979,978,980,982,981,979,977,978,982,979,977,975,977,980,983,987,981,977,976,977,976,974,983,1002,1031,1062,1094,1125,1156,1183,1205,1211,1192,1165,1120,1054,983,919,880,874,888,905,923,943,956,963,966,971,971,976,983,984,985,986,986,991,991,992,988,985,986,989,994,1004,1003,1001,998,998,999,1004,1006,1008,1011,1017,1020,1025,1027,1025,1025,1033,1042,1047,1050,1050,1047,1054,1058,1063,1061,1057,1052,1060,1067,1070,1067,1067,1068,1069,1068,1066,1056,1046,1039,1040,1041,1038,1027,1017,1008,1004,1006,1006,1004,996,990,991,992,991,987,982,978,982,984,986,982,978,978,979,980,981,981,976,976,980,981,981,981,980,978,981,988,991,989,985,983,986,990,995,1000,1000,996,1000,1002,1006,999,992,983,985,991,990,984,979,981,988,993,994,983,976,968,965,966,968,971,973,972,971,977,976,978,977,978,979,981,980,975,973,971,976,978,977,976,975,973,978,981,980,979,975,975,975,977,976,969,962,961,972,993,1018,1047,1071,1095,1127,1160,1186,1204,1211,1202,1181,1147,1098,1024,953,895,871,873,891,906,922,938,954,962,972,971,967,967,970,978,984,984,984,984,983,983,982,980,980,981,984,988,996,997,997,996,997,999,999,1001,1001,1002,1006,1009,1012,1012,1013,1016,1021,1024,1031,1036,1040,1041,1046,1050,1055,1051,1052,1055,1058,1064,1063,1062,1059,1056,1057,1056,1057,1056,1049,1043,1040,1039,1036,1032,1023,1014,1009,1006,1009,1006,1000,997,992,992,992,989,984,979,977,978,982,983,979,982,980,976,977,971,967,969,967,970,973,973,970,971,972,978,980,980,978,977,976,977,979,982,979,977,976,979,983,982,982,985,991,996,994,985,976,971,971,973,978,980,976,971,970,974,981,980,975,968,963,964,966,966,965,966,968,968,970,970,966,963,966,975,980,978,975,971,970,970,970,967,968,965,966,968,971,975,976,973,973,972,970,963,962,958,961,969,987,1012,1039,1070,1105,1141,1170,1191,1209,1209,1189,1160,1110,1040,964,898,866,864,879,900,923,939,952,963,968,967,966,963,964,966,967,968,969,967,969,969,975,976,979,981,980,982,983,983,985,989,990,998,1002,1001,1003,1003,1008,1014,1021,1021,1020,1021,1024,1027,1037,1039,1039,1039,1041,1050,1053,1057,1056,1057,1059,1062,1062,1056,1054,1052,1054,1056,1055,1050,1043,1035,1031,1030,1029,1025,1018,1009,1001,999,996,990,983,983,981,980,980,975,975,975,976,975,972,968,961,958,965,966,972,974,976,972,973,972,971,971,969,971,974,981,980,977,976,977,984,987,983,977,975,977,981,987,989,989,983,979,981,983,985,982,978,973,971,970,970,969,969,972,971,970,967,967,964,965,967,970,969,967,964,963,964,965,965,968,966,966,969,971,971,966,962,960,962,964,969,967,967,968,971,975,975,974,971,969,971,967,964,960,958,969,996,1029,1060,1086,1113,1140,1166,1193,1207,1202,1184,1152,1103,1044,975,915,880,870,877,890,909,925,937,946,958,968,975,974,971,968,970,974,978,981,983,981,982,983,983,980,975,975,979,986,992,991,990,992,997,1004,1006,1004,1003,1007,1013,1018,1022,1023,1022,1023,1029,1033,1035,1037,1038,1039,1044,1050,1051,1053,1049,1047,1051,1054,1057,1058,1058,1059,1059,1062,1063,1058,1051,1048,1047,1047,1046,1041,1034,1029,1023,1021,1018,1013,1007,1003,1003,1001,996,991,985,984,983,981,978,975,971,970,970,973,974,975,972,971,974,974,974,971,966,967,967,973,976,975,973,973,976,979,981,979,975,974,977,981,984,979,980,978,983,988,993,992,991,991,992,992,986,982,978,975,974,973,975,970,968,965,968,972,976,973,969,962,960,963,965,963,963,961,967,970,975,970,965,962,960,961,962,960,957,956,960,965,965,963,962,962,965,968,968,967,962,963,967,968,971,968,963,958,954,960,964,975,996,1024,1055,1085,1115,1140,1159,1177,1178,1168,1142,1099,1033,963,905,868,858,870,884,902,919,934,947,952,956,957,961,964,967,966,966,963,965,969,970,971,967,967,969,976,980,980,979,978,983,986,991,991,990,990,993,1000,1002,1004,1004,1006,1011,1017,1018,1019,1023,1026,1031,1035,1039,1040,1040,1043,1045,1046,1047,1044,1040,1045,1044,1048,1045,1043,1045,1041,1038,1036,1033,1028,1023,1017,1016,1014,1010,1003,995,986,987,986,980,976,974,971,971,972,969,967,961,957,962,962,961,959,957,956,956,960,964,962,959,956,958,962,961,961,957,956,960,961,964,964,963,965,968,972,972,965,963,964,968,971,976,981,978,980,976,973,972,965,964,960,959,961,962,963,962,960,963,963,960,959,955,954,952,953,955,957,953,951,954,956,958,957,956,956,958,961,958,958,953,953,954,959,958,957,956,954,953,958,959,956,955,952,950,953,951,947,943,943,959,975,996,1016,1036,1057,1082,1113,1130,1138,1131,1109,1081,1039,977,914,864,837,843,865,886,901,913,926,938,946,951,951,952,952,955,956,959,957,957,958,961,965,965,966,964,965,970,972,975,972,971,972,973,980,983,984,983,984,988,993,995,999,997,1002,1009,1012,1015,1013,1014,1018,1022,1027,1029,1029,1027,1029,1031,1037,1039,1037,1037,1035,1034,1039,1043,1040,1035,1032,1030,1028,1025,1020,1013,1008,1007,1006,1004,997,989,981,980,980,977,971,964,960,962,962,962,960,958,955,953,956,957,955,950,948,947,954,952,949,949,950,952,956,956,953,948,948,952,958,960,958,955,957,963,965,967,965,962,960,961,968,972,971,971,973,974,976,974,971,969,967,967,968,967,961,959,960,960,964,964,962,957,955,955,960,962,956,952,952,952,955,956,953,951,953,957,961,960,958,953,952,955,958,959,956,954,954,957,962,963,960,954,954,956,958,960,957,947,939,939,945,962,978,1001,1025,1058,1088,1111,1128,1134,1129,1108,1085,1051,993,931,874,841,829,840,861,877,892,904,922,936,942,944,947,953,955,961,961,958,959,962,966,970,970,966,967,969,974,976,976,975,976,980,985,987,987,988,988,992,1000,1002,1004,1004,1003,1011,1017,1018,1019,1019,1020,1023,1032,1035,1036,1033,1035,1035,1041,1043,1040,1041,1044,1043,1044,1044,1044,1039,1038,1039,1040,1038,1033,1029,1023,1022,1023,1019,1013,1007,1004,1003,1004,998,994,988,984,986,986,985,979,974,970,969,972,974,972,965,960,961,965,964,961,955,955,959,963,968,966,965,966,969,969,970,970,966,965,966,968,967,967,966,971,974,977,977,973,969,971,979,985,986,987,983,982,982,984,981,978,976,975,974,972,971,969,967,967,969,971,968,962,960,959,964,965,965,963,962,960,960,961,962,961,960,955,956,958,963,963,959,960,964,966,968,965,961,958,957,961,960,959,957,955,959,961,963,958,957,952,953,956,953,956,963,974,991,1013,1031,1055,1075,1094,1112,1123,1120,1102,1079,1045,997,942,891,856,835,840,863,886,903,913,924,935,947,960,962,959,954,957,961,968,968,969,965,965,968,977,979,979,977,977,980,984,989,988,985,991,993,998,1002,1002,999,1004,1009,1015,1019,1020,1019,1020,1025,1031,1035,1037,1035,1037,1040,1044,1046,1045,1043,1040,1045,1049,1049,1048,1047,1046,1048,1051,1048,1044,1037,1036,1035,1031,1027,1023,1016,1013,1012,1009,1005,1001,994,992,989,989,990,986,981,979,976,980,978,975,971,970,976,982,984,980,977,975,977,979,977,973,969,973,978,977,975,971,969,971,973,979,979,979,980,979,981,984,988,989,992,992,992,997,999,996,993,989,989,988,987,980,976,974,974,979,982,983,981,977,975,973,974,971,971,972,971,973,975,971,967,968,972,973,974,973,972,971,975,979,980,979,975,973,973,975,976,975,971,973,973,972,974,974,974,972,972,975,981,992,1006,1026,1049
