845,848,847,847,850,854,858,858,859,859,858,857,855,857,856,855,857,862,859,866,864,864,864,865,864,864,865,863,867,868,870,870,871,874,876,875,878,877,880,878,882,884,886,889,893,894,895,897,895,898,900,904,909,915,919,926,929,932,938,939,941,942,947,949,954,956,962,965,966,970,973,972,972,973,971,973,973,978,979,980,976,971,970,964,960,955,950,945,942,941,936,931,925,919,910,904,895,892,888,878,877,875,876,874,873,868,869,860,862,857,856,852,853,854,856,859,854,853,853,849,847,848,845,849,847,849,849,852,854,855,850,848,847,846,845,844,848,851,852,855,855,853,853,847,847,849,845,846,848,845,851,853,854,852,852,849,850,849,845,847,847,849,846,848,848,843,845,842,841,841,837,839,843,843,843,847,847,844,843,840,840,839,834,835,836,834,835,839,842,839,837,836,835,837,830,834,835,835,837,841,842,841,838,834,836,834,831,832,838,835,839,843,840,841,838,840,833,835,833,833,835,838,838,839,838,837,835,835,834,834,834,832,836,836,836,838,839,836,836,835,833,830,829,827,829,834,837,835,833,832,834,829,830,832,831,833,833,836,833,838,839,839,835,836,833,833,830,836,832,836,835,838,840,842,839,837,834,831,834,833,835,839,838,841,839,840,839,837,837,839,836,836,837,839,842,843,841,839,840,838,838,835,836,834,836,838,839,842,842,845,847,843,840,837,839,839,838,841,843,848,853,855,852,858,859,857,855,856,862,862,869,872,876,878,876,875,875,874,870,867,864,864,863,864,864,861,862,854,852,849,841,841,844,843,843,845,846,846,844,841,840,837,837,835,836,835,839,842,842,842,840,837,833,837,831,830,833,833,838,840,842,841,845,845,843,841,848,861,878,896,920,945,973,996,1008,1012,993,958,921,869,820,774,734,710,698,711,726,746,765,781,793,805,815,826,837,847,853,854,849,848,849,845,846,848,853,853,856,860,859,858,858,859,859,860,860,858,862,862,869,868,870,871,871,868,866,867,863,862,867,869,871,872,873,876,876,876,876,876,877,876,879,881,885,886,884,885,889,887,888,888,888,889,893,897,899,899,904,908,908,911,909,911,910,910,913,917,924,929,934,936,940,944,947,944,948,949,954,959,964,971,968,971,971,972,971,974,975,979,977,979,985,986,985,979,975,971,966,961,958,952,948,947,942,940,936,928,921,914,907,902,896,892,889,885,882,880,879,877,873,869,866,862,860,858,858,860,860,859,859,857,857,855,854,851,849,849,850,850,850,856,856,857,854,849,853,850,851,849,851,853,855,859,859,857,858,855,857,857,855,854,856,856,859,860,861,861,858,857,854,853,849,848,850,850,855,856,857,852,854,849,851,848,849,844,846,846,845,847,847,851,850,848,849,846,846,843,840,841,843,844,844,845,843,840,841,840,839,837,840,844,842,845,846,844,843,841,842,840,839,840,837,840,839,841,840,842,841,843,840,839,838,839,838,838,838,841,842,842,841,839,840,839,834,837,837,840,841,842,841,841,839,837,837,832,832,833,835,838,838,840,841,839,837,837,835,835,836,835,836,840,841,839,839,837,835,837,835,836,833,833,835,838,840,841,841,841,837,837,835,834,836,837,835,840,841,843,841,842,840,837,834,835,835,834,836,834,836,838,839,837,838,836,831,831,833,832,834,838,837,839,837,839,839,838,836,833,834,838,838,839,842,844,843,841,840,837,836,836,834,833,833,837,840,841,843,846,851,850,854,851,852,851,851,853,856,859,866,866,867,866,867,867,867,864,864,860,861,862,862,861,855,852,848,841,834,832,833,836,837,837,836,838,835,835,833,831,826,825,825,827,829,829,832,829,827,827,827,828,827,826,828,830,831,835,837,834,834,835,836,839,843,853,872,893,919,944,967,978,975,955,918,870,819,772,731,699,680,678,692,710,733,750,763,780,793,804,816,829,838,840,840,838,834,834,832,836,839,841,843,848,848,850,849,851,849,847,849,848,848,846,851,851,856,855,858,858,860,858,856,855,852,850,853,857,860,860,860,858,862,860,861,861,858,859,866,863,868,871,869,872,872,871,871,873,871,875,878,878,884,886,892,894,896,896,902,901,903,904,911,918,921,929,931,935,934,936,939,944,943,950,954,957,961,964,968,968,968,966,966,963,959,957,956,956,956,958,955,952,948,938,931,923,918,911,910,905,898,890,886,883,882,873,870,864,861,858,853,857,854,853,854,851,849,843,842,840,840,838,841,840,841,844,844,841,842,837,836,833,832,830,830,836,837,836,840,838,840,837,836,835,834,837,837,837,839,837,837,835,839,836,836,831,835,834,833,836,838,837,834,833,831,830,828,830,828,828,830,829,831,835,834,834,832,832,827,828,825,826,826,824,825,827,826,825,826,827,826,825,821,819,819,822,824,824,825,825,822,820,820,819,819,818,820,822,822,823,827,827,824,822,820,817,816,814,816,816,820,823,824,822,822,822,819,818,819,816,814,818,820,821,821,817,816,818,819,816,812,813,815,818,819,820,825,820,819,816,816,813,814,813,817,818,822,823,824,825,824,822,822,818,818,815,818,816,819,821,823,825,823,823,822,821,816,816,817,816,819,821,824,823,819,821,819,816,818,817,819,820,820,819,826,825,825,823,823,820,815,820,821,823,827,830,831,835,838,838,840,840,840,838,840,843,846,850,853,854,854,857,856,858,855,849,847,848,848,851,850,845,841,835,831,824,822,823,824,822,828,829,828,827,827,823,821,813,811,813,815,817,816,819,818,821,820,818,819,817,818,819,820,822,825,828,830,831,835,847,862,877,904,933,960,985,994,987,960,918,866,810,761,717,686,676,679,700,723,745,765,775,781,792,801,812,823,828,831,834,830,834,834,830,834,836,834,834,837,836,840,839,842,843,844,848,847,843,844,843,841,844,844,847,847,852,854,856,849,856,853,854,850,849,854,857,859,858,863,865,864,865,864,863,864,864,865,867,871,877,875,874,877,878,877,877,878,879,882,888,892,897,901,900,903,906,907,911,912,915,919,924,929,932,938,941,943,944,946,946,950,952,953,957,956,961,965,966,967,966,962,960,958,956,956,956,958,956,951,947,942,935,929,923,911,904,898,899,894,892,891,885,881,875,869,863,858,853,853,855,850,853,851,851,847,845,843,839,839,840,838,841,842,841,839,841,842,840,840,837,835,832,835,838,838,840,842,842,843,839,838,839,835,836,839,842,844,843,841,840,844,843,840,842,841,837,840,839,843,843,846,843,843,842,842,837,837,837,836,835,834,839,841,842,841,837,838,833,831,831,832,833,833,836,834,830,831,833,829,829,830,828,829,829,830,833,832,833,832,830,829,825,825,821,821,825,827,831,831,831,830,830,829,827,825,824,825,825,826,830,828,829,826,828,824,827,826,826,826,827,830,831,832,827,827,825,826,824,823,822,827,824,828,831,832,831,828,824,824,823,819,818,818,824,822,825,827,829,827,828,826,826,823,824,825,824,828,829,828,827,829,829,827,825,824,822,821,826,828,830,832,829,830,828,828,824,823,825,823,825,827,829,829,830,832,827,826,826,824,821,823,825,826,827,831,830,828,824,823,823,824,824,824,826,828,830,832,830,828,830,829,828,825,825,828,831,832,831,833,835,834,838,839,838,840,839,842,843,846,849,851,853,858,860,862,860,861,861,861,857,857,857,855,856,852,850,848,846,840,835,832,829,829,829,831,831,832,830,827,825,823,819,814,816,816,818,820,822,823,819,820,821,819,818,821,823,822,825,824,827,827,825,824,824,831,837,850,871,896,920,951,977,988,985,959,914,862,806,753,712,684,679,689,711,733,754,769,782,792,802,813,821,827,831,829,830,829,829,830,826,830,830,834,835,838,840,841,842,841,842,843,838,839,839,840,844,842,845,848,853,851,849,850,848,845,844,843,846,849,847,856,855,855,859,857,855,853,856,855,859,860,865,866,867,869,871,871,871,873,870,875,878,879,883,890,893,893,896,898,896,897,902,908,913,916,922,927,930,933,935,935,935,939,937,941,942,949,951,956,955,958,958,958,956,956,951,949,948,949,947,943,935,931,923,912,906,901,897,891,890,884,880,877,871,864,859,853,846,841,835,836,836,835,837,835,834,832,830,826,823,825,826,824,826,829,829,829,825,825,824,822,823,821,821,823,824,829,829,829,829,825,825,823,820,818,817,824,824,827,829,829,828,828,828,828,826,825,822,822,823,824,821,824,824,826,824,822,820,821,820,819,820,820,821,822,819,816,814,812,811,810,808,809,811,815,815,816,814,813,810,810,810,811,811,809,807,810,811,814,814,812,812,810,810,808,805,806,807,807,810,810,813,808,812,809,808,810,809,808,806,809,811,813,810,811,811,807,804,803,803,803,805,806,811,811,810,812,812,808,808,806,805,804,804,809,810,811,810,812,809,806,804,805,803,805,806,807,811,813,812,808,808,805,804,803,806,805,806,810,810,811,812,807,810,808,807,806,803,806,802,803,805,810,810,813,811,809,807,806,804,805,808,807,807,810,808,806,806,808,805,803,805,805,805,806,810,812,813,814,811,812,806,808,805,807,809,809,808,815,812,812,812,814,816,818,819,822,824,825,823,828,827,831,833,834,840,840,839,841,841,846,844,843,841,839,837,833,832,824,823,816,819,816,813,817,816,814,811,813,810,809,805,805,807,804,805,805,801,803,805,803,804,804,801,800,802,805,806,809,810,810,809,809,805,804,808,814,828,843,861,887,913,936,959,962,949,914,862,804,747,691,652,632,630,640,667,688,710,731,745,761,774,787,800,808,809,812,809,808,808,809,807,809,814,816,812,822,824,822,823,822,822,820,819,819,823,823,823,825,824,826,826,826,826,827,826,828,832,832,833,835,838,836,836,836,835,834,831,832,834,841,842,847,848,849,846,846,847,849,851,849,852,859,862,868,871,871,877,876,875,879,878,884,891,897,903,907,908,910,907,914,915,916,916,921,927,932,935,940,942,941,939,938,937,938,937,935,937,939,939,937,938,934,930,927,919,914,910,905,901,898,894,893,885,877,875,863,860,857,849,847,845,847,844,841,839,838,835,829,826,825,822,822,823,819,824,825,822,821,822,823,820,817,818,818,816,819,822,825,824,824,822,822,820,820,819,818,821,819,822,825,824,823,822,820,820,822,818,820,820,823,820,825,825,827,824,817,820,819,816,816,815,818,819,822,820,822,820,817,816,814,813,812,813,813,813,814,811,810,811,810,810,810,808,806,807,811,812,811,811,812,811,809,808,808,805,807,807,809,811,815,815,812,811,808,806,804,807,805,807,808,811,812,812,812,812,810,809,809,807,805,807,812,812,816,815,815,815,810,811,806,806,806,805,808,808,810,814,814,815,811,813,810,809,809,809,810,813,812,815,814,811,810,811,811,810,809,812,812,816,816,816,813,812,810,806,808,808,809,809,810,810,814,815,814,814,814,814,813,814,808,809,811,813,814,814,813,815,811,810,809,809,813,815,815,815,815,818,817,816,814,813,810,810,810,812,814,818,818,821,819,820,817,818,818,814,815,818,819,818,821,821,821,817,818,819,819,818,820,821,829,830,834,835,836,839,835,834,834,836,841,845,846,849,851,852,853,849,846,843,837,833,835,835,836,836,836,832,828,828,823,819,816,812,811,812,814,814,814,815,813,811,808,806,805,804,805,808,813,812,810,813,813,811,809,810,807,810,806,811,813,813,824,822,831,843,861,879,903,930,959,981,990,977,947,902,847,789,736,691,669,665,681,709,738,761,781,797,811,815,822,823,821,821,819,820,823,825,831,834,833,833,831,831,831,831,832,835,836,836,840,841,843,840,842,841,842,841,842,844,844,844,848,849,850,848,849,850,851,848,851,851,858,856,859,861,863,863,861,863,860,862,864,870,872,872,878,881,881,886,886,889,889,890,895,897,902,907,912,915,919,922,924,928,932,936,937,941,944,951,955,956,957,954,958,958,957,952,955,956,960,966,963,965,961,957,952,946,941,930,922,920,917,910,908,903,898,892,883,877,871,865,860,856,853,852,852,847,846,842,839,838,835,836,836,834,837,835,840,836,833,833,831,830,828,827,826,828,832,831,835,836,838,835,833,830,832,830,830,829,831,833,834,829,832,832,832,832,830,828,831,829,835,834,833,834,833,833,829,826,828,825,825,828,829,831,832,833,829,828,826,822,818,817,816,817,820,820,822,823,824,822,823,823,817,819,819,821,819,819,820,821,819,818,818,816,814,815,814,814,817,815,818,821,818,820,818,816,813,813,812,812,815,817,816,817,818,814,812,814,812,810,811,810,810,813,814,816,817,811,811,809,807,810,811,812,815,812,814,815,816,812,809,809,808,809,808,810,808,812,813,814,816,815,810,811,810,808,807,805,808,808,811,814,811,815,810,807,806,803,805,808,810,813,814,814,810,811,810,807,807,807,805,806,811,808,810,811,812,813,810,809,807,807,807,807,805,808,813,814,816,812,810,808,806,804,805,808,807,808,810,809,809,807,810,809,809,810,809,811,809,813,814,814,814,812,807,809,805,805,805,804,808,811,813,815,812,817,816,817,816,816,820,822,827,827,831,831,832,829,832,839,839,840,842,843,847,843,841,840,837,835,831,828,826,822,823,821,820,819,817,814,814,814,812,811,804,801,802,801,804,804,807,808,806,807,803,801,799,798,800,799,802,804,807,806,809,806,806,802,801,804,811,819,831,846,866,890,912,939,957,956,942,908,862,808,754,706,673,651,645,658,675,697,718,736,751,767,782,793,807,811,814,817,815,811,811,808,814,815,818,819,820,821,823,825,821,823,820,820,820,822,828,829,832,832,832,831,833,831,830,828,831,830,830,836,838,838,840,838,838,839,837,834,838,839,842,846,847,849,850,853,851,851,852,851,859,858,862,869,874,878,881,880,884,884,885,890,893,899,900,907,914,920,923,927,921,926,927,929,932,936,938,943,946,946,946,946,946,950,945,943,937,940,939,944,943,938,934,927,922,912,907,898,893,884,881,875,874,869,863,860,855,848,840,838,835,828,831,828,829,827,827,824,818,819,815,816,816,817,816,816,819,820,819,818,818,817,815,811,813,814,815,815,817,820,818,822,817,817,816,812,812,813,814,813,817,818,821,820,818,814,815,817,815,815,819,818,820,822,818,818,814,814,811,810,811,810,812,813,819,818,814,814,814,809,807,808,805,804,805,805,804,807,808,808,806,805,803,801,801,799,806,804,804,806,804,802,799,797,795,797,798,799,802,803,804,805,801,802,799,798,800,797,793,795,795,798,802,806,804,803,804,803,799,799,799,801,801,805,805,807,802,806,802,801,798,799,799,803,803,803,805,807,807,806,804,802,801,799,798,800,802,805,807,807,805,804,807,804,802,801,801,800,805,806,807,806,802,804,804,803,798,799,799,801,805,803,808,812,810,811,809,806,805,803,800,802,803,807,809,812,813,810,809,810,803,800,796,798,802,805,805,808,807,810,804,804,804,802,800,805,812,810,812,812,811,807,806,808,805,805,803,806,807,808,811,815,812,812,814,810,809,808,806,808,810,811,812,814,814,814,814,811,812,810,818,824,824,826,827,833,833,834,834,835,834,837,838,837,839,841,839,839,837,835,829,829,830,827,826,823,823,818,816,813,812,809,809,806,807,806,806,808,810,808,810,808,807,806,804,799,797,799,798,799,800,801,809,809,810,812,809,810,810,810,809,816,823,835,855,879,906,935,962,979,981,964,928,881,829,779,731,693,670,664,675,696,720,732,747,767,784,797,808,819,820,822,818,818,813,811,815,813,818,824,824,828,831,829,828,827,828,826,827,830,831,835,835,836,836,834,835,832,832,830,833,832,835,836,844,843,845,845,846,844,843,843,842,845,847,851,853,857,856,859,860,859,856,858,863,864,867,871,874,880,880,883,886,888,886,891,893,898,904,908,915,920,922,926,930,930,928,932,933,940,945,947,952,956,955,958,961,957,953,953,952,953,953,951,950,947,943,937,929,926,917,910,907,901,896,892,887,882,877,870,861,857,852,847,845,840,840,836,838,840,836,834,830,827,825,823,822,823,821,822,822,826,829,827,826,827,823,820,821,820,822,821,822,822,822,821,821,819,822,819,821,821,824,826,830,829,827,828
