836,834,833,835,834,835,838,838,841,840,841,837,837,835,834,831,833,833,837,838,836,837,835,835,830,827,829,829,828,828,831,832,830,828,829,829,831,827,827,826,826,827,829,829,832,831,834,828,828,826,825,825,824,827,828,830,831,830,829,823,822,823,822,823,825,826,825,829,834,832,832,831,831,828,827,828,828,828,831,829,828,832,829,827,830,828,826,825,825,829,831,832,831,832,830,829,830,827,824,825,827,830,831,829,828,830,830,829,826,825,827,825,827,830,830,832,835,831,832,833,830,828,828,827,828,831,833,832,834,834,830,834,831,828,829,827,825,827,830,834,835,835,835,831,831,831,828,827,830,833,833,836,836,836,835,835,832,831,832,828,829,830,833,835,837,837,836,834,833,831,830,828,829,835,835,836,836,836,838,838,834,832,834,833,838,840,844,851,854,856,858,856,857,855,850,855,860,868,873,879,880,881,879,872,866,865,862,854,858,861,861,861,861,858,856,851,842,835,829,826,825,822,824,825,824,821,821,820,819,818,815,815,817,817,818,819,823,825,823,818,816,814,814,812,812,814,819,819,822,823,822,822,823,821,821,823,824,825,829,831,835,839,839,842,849,857,881,916,958,1008,1058,1106,1155,1205,1242,1253,1229,1171,1089,984,873,777,715,688,700,726,756,782,794,798,801,802,806,812,818,824,829,827,825,823,820,821,821,820,821,825,824,827,829,827,827,824,823,820,820,821,824,823,825,827,829,831,829,827,826,826,823,822,822,823,824,825,829,830,835,830,829,827,824,826,827,831,834,833,837,839,837,838,837,836,838,837,838,840,842,843,851,851,853,855,853,854,855,857,862,867,871,876,880,878,884,888,889,892,892,896,898,904,909,908,918,920,921,924,925,924,927,928,928,933,933,934,934,932,930,927,921,916,912,907,901,899,892,891,890,884,879,875,870,863,860,857,854,855,854,854,853,852,849,847,844,840,838,841,836,840,841,842,846,843,843,838,838,834,834,833,833,835,835,838,839,839,839,832,834,833,833,834,835,840,842,843,844,842,845,844,845,841,840,841,840,840,842,843,846,848,845,845,845,841,840,840,841,840,845,847,849,847,848,847,843,838,840,840,839,837,844,844,844,843,842,841,836,837,836,833,834,836,840,839,842,841,841,837,834,832,828,828,827,834,837,839,838,839,838,834,835,833,832,830,830,835,835,839,840,837,835,833,831,827,829,830,827,831,832,833,836,834,836,835,831,829,828,823,830,829,831,832,835,834,837,833,833,831,828,830,829,830,832,835,836,838,837,834,833,829,827,830,828,830,830,834,835,835,835,838,834,832,829,829,830,831,835,836,838,836,836,836,835,833,830,830,828,831,834,831,837,833,835,838,838,837,834,833,832,832,836,835,838,839,841,840,835,834,832,832,835,837,840,839,841,841,841,840,840,840,841,839,843,844,852,858,863,863,862,865,860,861,868,874,880,885,888,889,890,887,886,881,877,876,875,871,873,872,873,871,868,857,850,843,836,835,835,833,832,832,831,834,833,832,834,834,831,831,830,826,828,828,830,835,836,835,833,830,827,829,827,830,829,829,835,834,837,838,837,837,833,835,831,833,833,835,839,845,849,850,852,850,849,848,850,856,873,901,942,991,1040,1090,1143,1194,1245,1275,1284,1247,1178,1078,960,841,747,686,672,684,714,744,768,787,795,805,814,818,829,834,839,842,838,836,834,830,829,832,836,840,843,840,842,839,838,837,836,836,837,839,839,844,843,843,843,840,841,837,837,836,833,837,841,842,845,844,844,842,841,838,839,838,838,838,840,845,842,841,845,844,844,844,842,845,845,847,850,855,858,860,859,860,859,858,859,861,862,866,870,872,877,880,882,882,881,885,884,887,890,892,897,903,907,914,913,913,915,914,916,918,923,924,929,932,937,938,938,938,936,934,934,931,926,927,926,926,923,922,915,909,905,900,896,891,888,882,881,880,875,876,875,874,870,866,864,859,861,861,862,863,862,861,861,859,859,854,856,852,851,854,853,857,857,856,857,857,856,854,853,853,852,853,856,858,857,857,858,860,858,856,855,854,856,854,859,859,865,864,865,864,864,862,859,859,860,862,860,865,866,867,866,866,864,864,862,864,861,864,863,865,867,865,866,865,862,860,853,858,855,854,857,860,861,860,861,861,858,856,855,854,853,854,856,857,859,857,858,857,851,855,851,850,848,849,849,852,854,854,854,854,850,848,848,847,844,848,849,852,854,854,855,853,849,847,847,844,846,844,844,852,851,853,852,848,847,846,844,842,843,845,847,850,854,853,853,852,851,847,846,843,842,844,845,849,850,850,850,847,847,846,845,843,844,842,846,849,850,850,848,854,848,848,845,845,840,842,847,847,847,850,851,852,851,848,846,846,846,848,849,850,851,855,852,849,850,848,844,843,843,846,850,850,852,851,853,850,846,844,844,846,845,846,850,853,851,853,853,852,849,847,846,845,841,844,845,849,852,855,855,855,851,853,848,845,847,845,848,851,851,853,855,852,852,849,850,846,845,848,851,853,853,855,856,858,856,856,856,858,860,867,871,877,877,880,879,877,875,876,878,884,888,892,894,895,895,893,891,889,885,880,879,879,875,875,880,877,875,874,868,864,856,851,845,841,840,839,839,840,844,844,846,845,842,842,838,835,837,837,840,843,844,846,844,844,844,841,839,839,837,838,839,841,845,847,847,851,848,845,843,848,847,851,853,859,861,864,868,873,886,907,942,988,1035,1089,1141,1195,1247,1287,1296,1270,1206,1112,996,881,785,723,709,726,761,802,827,838,840,833,826,825,829,835,844,847,850,849,851,849,844,840,841,842,842,844,846,848,851,849,850,849,845,847,845,845,844,845,846,843,850,851,847,849,849,847,844,842,841,843,846,847,852,852,851,850,848,846,845,841,845,845,847,850,852,855,857,857,856,854,854,854,852,855,856,861,864,866,871,870,871,869,869,871,872,877,882,886,887,893,895,897,899,900,903,904,905,911,915,922,927,930,933,936,934,937,936,937,939,941,944,947,947,946,948,945,939,934,928,922,920,917,914,911,908,905,901,896,889,881,876,874,871,868,869,868,868,870,868,865,861,860,857,854,855,853,855,858,861,861,862,861,859,854,856,854,853,852,852,855,858,859,859,861,856,855,853,852,855,854,856,860,861,861,860,861,861,859,853,851,850,854,857,860,862,861,861,862,860,855,853,851,850,852,854,858,862,863,861,860,856,853,856,854,851,851,851,855,851,855,856,855,854,852,852,848,847,848,848,852,855,855,856,853,853,848,847,846,847,846,846,850,851,847,850,849,847,843,844,842,843,842,844,845,850,851,850,849,849,848,844,844,844,844,843,845,848,850,849,849,849,845,844,841,836,837,841,844,846,846,846,846,844,843,840,841,842,842,842,844,843,847,845,845,844,843,840,839,841,840,841,844,846,848,848,846,843,844,842,841,841,840,843,848,845,847,848,845,845,846,843,841,840,841,844,845,846,848,849,848,849,847,844,843,841,840,844,847,848,848,849,848,848,847,845,844,843,841,844,846,847,851,850,848,848,847,843,843,843,842,845,844,850,849,848,850,847,846,842,842,841,844,845,847,851,851,850,852,847,846,844,843,843,842,845,847,849,851,852,850,848,847,846,843,847,848,850,852,859,865,868,873,873,870,868,869,868,870,874,881,888,891,894,893,893,889,886,880,878,876,880,877,879,880,880,876,875,865,858,852,852,846,844,843,845,843,842,841,837,832,830,828,828,831,829,833,837,837,833,830,832,833,833,830,828,834,836,836,836,839,839,838,837,837,833,831,832,833,839,837,844,843,845,846,849,854,856,862,878,905,946,993,1038,1090,1145,1192,1235,1244,1221,1161,1072,972,867,783,727,709,720,746,775,795,805,805,803,803,808,813,823,833,834,841,839,835,829,825,827,830,833,833,833,838,839,842,838,834,833,831,833,832,834,835,837,840,839,836,838,836,833,834,835,831,837,835,836,841,842,842,843,843,839,840,839,837,838,839,844,844,845,846,844,845,845,843,842,844,847,851,853,857,854,858,856,855,858,857,858,862,863,868,871,877,878,882,885,886,884,886,886,888,891,900,902,908,909,915,919,920,919,922,922,925,926,928,935,935,937,936,934,930,929,924,922,920,914,914,914,913,909,906,901,893,886,880,874,873,870,867,867,866,865,862,858,856,854,850,850,849,848,852,851,853,851,849,849,845,847,845,842,842,845,848,849,852,850,847,846,842,844,844,844,843,847,849,849,850,853,854,853,851,850,850,849,849,849,852,853,854,856,855,852,853,854,851,851,850,847,853,849,855,857,857,856,853,850,849,848,847,847,851,850,852,852,850,847,848,844,846,844,844,843,844,843,847,847,846,847,847,842,838,841,839,841,842,845,845,848,848,845,843,840,841,840,837,837,838,841,842,842,846,845,844,845,843,841,838,839,842,841,842,842,841,841,842,841,839,839,838,840,836,839,838,842,845,842,842,841,839,837,836,840,840,840,845,845,844,844,844,839,837,838,837,838,840,842,844,846,843,840,840,839,835,838,842,841,844,845,847,845,844,845,843,841,842,841,839,842,842,844,845,847,847,845,843,839,838,837,839,842,841,843,844,845,846,846,843,842,842,839,842,840,843,847,848,852,857,855,857,855,858,857,858,860,864,866,873,878,887,886,886,887,887,882,878,877,874,877,881,882,883,879,874,866,859,850,846,841,841,845,847,847,843,840,837,835,832,831,832,832,833,836,840,839,838,838,836,833,832,832,831,831,833,837,839,839,839,840,840,839,839,840,840,843,842,847,851,852,853,854,851,851,852,854,867,889,926,977,1024,1079,1129,1185,1235,1265,1269,1236,1169,1076,969,857,765,706,684,691,715,742,764,782,787,793,800,811,825,832,839,843,844,841,839,836,835,836,837,842,843,846,847,846,843,844,841,841,841,841,841,843,846,848,847,846,843,843,843,844,844,844,843,848,849,849,848,850,847,846,842,842,842,843,846,848,850,854,852,848,850,849,847,847,846,849,851,854,859,860,859,862,863,861,860,860,863,863,867,871,875,878,880,883,884,884,888,888,891,896,899,903,907,913,914,913,914,913,914,918,920,921,927,932,932,934,937,936,932,932,928,926,922,922,921,915,913,913,908,904,897,892,887,883,877,874,874,875,876,873,871,869,861,859,858,856,858,857,860,860,863,862,862,858,854,854,855,854,853,856,858,858,859,862,862,860,860,856,856,854,855,855,858,859,862,864,864,863,863,864,860,857,860,859,862,863,867,868,868,865,865,861,861,859,861,863,864,865,869,870,870,869,868,866,863,861,862,860,865,867,864,867,862,864,861,861,858,858,858,857,858,861,862,862,863,862,859,860,856,854,854,853,856,859,859,861,858,858,853,853,854,850,849,853,853,856,853,857,854,856,850,852,849,851,850,849,849,851,855,854,853,853,850,848,848,844,847,848,847,849,852,855,855,854,852,849,846,846,846,846,849,850,853,854,854,853,851,849,848,847,845,848,851,851,852,854,850,851,853,849,847,848,845,849,849,851,852,854,851,853,852,852,849,849,849,849,848,849,852,853,853,854,851,851,849,847,846,848,851,855,855,855,855,855,854,849,849,850,850,850,854,854,855,857,855,853,850,851,851,849,850,847,848,856,858,855,857,856,854,853,852,850,852,852,853,852,856,857,855,853,855,851,853,853,853,853,860,861,865,869,872,872,872,873,870,870,871,877,880,887,892,894,896,899,897,894,891,886,883,881,877,882,880,881,879,880,874,867,864,853,849,847,847,849,846,845,844,841,836,837,839,838,836,836,839,839,841,842,841,839,840,838,834,834,833,836,837,838,843,844,842,843,842,839,838,838,840,842,845,845,846,850,848,852,855,854,858,863,877,903,941,987,1040,1095,1148,1208,1253,1280,1269,1222,1140,1031,916,813,743,712,719,752,787,814,829,830,827,825,826,830,834,841,845,846,844,838,835,836,831,834,838,840,842,846,846,846,840,836,832,834,833,833,839,841,844,842,842,843,843,843,839,838,839,836,837,840,846,846,847,847,846,845,843,844,842,842,847,849,848,849,850,848,845,848,850,851,850,849,853,854,856,862,862,864,864,863,862,865,867,870,872,876,879,886,887,890,889,894,896,897,900,901,904,911,918,917,922,923,925,925,926,928,929,934,936,941,943,947,949,948,946,944,938,935,934,931,930,927,925,920,914,914,909,901,894,892,887,886,882,880,877,877,875,874,870,867,862,856,859,860,859,861,860,862,859,860,854,855,852,851,853,853,854,856,860,859,857,858,857,853,853,850,848,850,850,854,857,859,862,858,858,855,854,852,852,854,855,858,860,861,861,860,858,857,857,855,854,855,856,859,861,862,861,862,861,858,856,853,852,854,853,856,858,858,856,857,856,853,851,850,849,846,849,849,847,852,851,853,852,848,845,841,841,841,844,848,848,850,848,846,848,845,844,842,844,843,844,847,849,849,850,849,847,842,838,841,844,841,842,842,846,846,847,846,846,842,841,839,838,842,841,843,845,849,844,850,847,844,840,840,840,841,841,844,845,848,848,846,847,844,842,843,840,838,841,843,845,849,848,847,847,843,842,842,840,841,843,848,843,845,843,846,847,845,845,843,841,841,841,845,846,850,849,850,851,845,846,840,843,844,845,848,850,850,850,853,850,847,840,839,839,842,843,845,848,851,850,850,847,846,843,842,844,845,848,849,852,854,852,850,851,850,848,846,842,844,845,847,849,850,852,849,850,848,846,843,844,845,843,848,849,853,854,852,853,850,849,848,847,845,849,852,855,859,860,865,866,865,867,869,871,870,871,876,878,881,885,888,890,891,890,888,885,884,880,878,878,880,879,879,876,870,864,860,856,850,845,845,846,844,842,841,838,834,835,831,833,835,834,837,837,837,835,838,833,831,828,830,830,832,837,836,839,842,841,839,840,838,836,837,835,837,838,841,845,848,847,849,851,851,849,852,859,876,905,946,998,1053,1109,1172,1219,1241,1230,1171,1074,961,846,760,710,703,725,759,790,806,811,809,809,810,818,826,835,844,840,845,841,837,835,834,831,834,833,839,840,843,844,842,842,840,840,836,836,835,838,839,840,842,841,841,843,842,833,833,836,836,838,838,843,846,848,845,842,840,842,840,841,839,840,845,846,849,850,848,846,844,846,846,843,847,848,850,853,858,858,860,858,861,862,862,864,870,873,877,879,883,886,885,887,892,892,894,893,895,900,908,913,917,920,921,924,924,924,926,926,928,932,936,940,941,938,936,933,931,928,921,917,915,916,913,911,908,903,900,893,887,881,874,871,869,866,868,867,868,864,865,861,858,857,853,848,846,851,852,851,854,851,850,848,846,850,848,847,846,850,850,854,856,855,858,855,855,852,851,850,851,850,852,855,855,856,859,854,855,854,853,852,852,853,857,861,863,862,863,862,856,856,856,857,858,858,861,859,861,862,863,858,855,852,855,854,849,854,854,856,857,857,854,850,850,852,855,850,849,849,852,853,856,855,855,852,850,849,845,844,844,845,850,850,852,849,853,851,847,848,849,847,845,846,848,848,849,851,850,849,846,845,844,841,844,844,848,848,850,849,852,845,845,847,844,843,843,844,846,846,850,852,852,852,849,846,845,842,843,845,846,846,846,847,851,849,847,844,841,841,841,841,842,847,852,851,852,852,846,847,846,844,845,844,849,849,852,853,852,851,848,846,845,844,844,847,852,850,852,851,852,850,845,847,844,846,846,847,846,849,852,854,853,852,848,848,847,845,845,846,850,848,854,856,856,857,858,857,858,859,860,864,868,872,877,875,876,876,879,882,888,890,892,894,898,896,894,894,891,888,888,886,882,881,877,871,868,863,860,856,855,853,850,848,844,843,841,839,842,847,847,845,846,844,843,840,837,836,837,838,839,846,849,846,845,847,847,843,843,843,845,845,847,851,853,851,850,853,852,853,850,853,853,853,858,861,867,870,876,892,919,960,1009,1057,1117,1174,1232,1268,1276,1248,1182,1088,976,862,767,710,689,700,729,765,790,806,814,816,819,819,830,838,843,846,851,850,850,850,847,849,844,846,845,845,846,846,850,855,855,856,853,856,853,853,851,851,850,852,854,854,853,853,855,856,854,852,852,850,848,851,851,854,856,858,857,858,856,852,852,849,850,855,857,860,860,863,865,862,860,861,861,858,859,866,868,872,875,876
