935,934,933,934,935,933,935,939,943,944,948,953,954,955,953,952,950,946,943,941,940,935,937,936,931,929,923,921,917,914,913,909,907,909,910,910,909,910,908,907,904,904,903,904,908,908,909,910,912,911,910,913,911,912,912,915,916,919,922,925,922,924,922,919,921,920,921,922,925,927,929,929,930,930,927,927,924,922,922,925,926,924,927,927,925,923,921,918,915,914,915,916,918,915,916,918,917,915,913,912,909,908,907,905,907,907,907,908,906,906,902,903,902,899,903,899,900,899,900,903,901,902,903,899,899,898,898,894,896,898,899,899,898,901,899,898,896,895,896,898,900,897,898,899,901,899,897,898,896,894,894,895,895,898,899,901,901,899,896,895,892,892,893,894,897,895,899,899,898,896,896,895,891,892,894,893,896,894,899,901,899,899,896,896,894,894,894,894,897,899,901,901,901,901,900,899,898,898,899,898,899,896,900,904,905,903,900,899,899,900,901,904,910,916,918,920,919,918,916,914,911,908,903,904,907,908,911,913,913,910,910,909,904,901,897,897,897,901,902,905,907,910,910,913,919,927,946,974,1019,1077,1152,1231,1295,1330,1331,1284,1175,1047,919,791,663,680,739,806,853,880,886,884,879,877,881,885,890,893,894,893,890,889,890,887,886,887,888,887,889,893,894,897,898,900,899,899,897,897,898,898,899,903,908,909,908,910,909,908,911,911,909,911,912,916,914,919,920,920,919,918,917,917,919,921,923,923,926,929,931,932,932,931,931,931,931,933,936,938,939,940,938,938,941,941,936,936,935,935,936,939,940,940,940,939,939,936,936,938,939,941,945,947,950,953,956,955,954,957,953,949,946,942,942,942,943,943,940,936,934,929,925,920,916,915,915,914,911,912,911,909,909,908,906,905,903,906,907,908,908,910,910,911,911,909,908,908,908,910,911,914,916,917,919,917,918,919,920,920,918,918,919,923,923,925,927,928,927,924,924,921,922,922,923,924,924,924,924,923,923,920,919,917,916,916,917,917,916,916,914,914,909,911,910,905,904,903,906,907,910,911,910,907,907,903,902,901,902,902,902,903,904,905,903,902,901,900,900,899,897,899,897,898,901,900,902,901,900,896,897,896,897,897,899,902,901,904,902,902,902,899,899,897,894,894,898,896,900,900,899,898,899,898,897,894,895,894,896,898,899,900,899,899,896,893,895,895,897,895,898,896,900,899,902,900,899,897,900,897,897,897,896,899,900,903,903,900,902,901,900,899,900,899,901,900,903,904,903,902,903,903,901,900,899,900,903,903,905,906,906,906,905,902,902,900,899,901,901,901,907,913,914,919,915,915,914,914,915,915,916,914,910,911,911,911,912,911,910,908,910,909,908,906,904,903,902,903,902,902,902,902,905,906,911,917,927,943,968,1010,1070,1149,1231,1301,1339,1346,1304,1207,1079,951,823,695,699,745,807,852,879,887,882,879,881,884,889,894,894,891,890,886,886,885,886,886,890,892,892,892,893,893,893,892,892,893,897,899,899,902,903,905,902,902,903,901,903,905,907,910,913,915,914,914,913,914,913,913,915,915,917,919,919,922,922,923,923,926,924,926,925,928,928,934,933,938,937,937,936,938,935,935,938,938,939,941,939,939,939,939,942,941,943,942,943,941,944,943,946,947,946,948,948,951,948,949,951,957,960,964,966,972,971,970,968,964,963,960,957,956,955,952,949,949,945,942,939,935,933,930,928,924,923,921,921,921,920,918,918,914,911,908,908,907,910,914,913,917,917,916,916,914,915,914,917,916,918,919,919,921,920,922,924,924,923,923,924,923,928,928,930,932,932,932,933,931,929,929,927,928,928,932,930,932,930,930,926,926,922,924,923,923,926,926,926,926,924,923,924,923,921,923,920,920,920,919,920,922,921,919,918,916,915,910,909,911,910,914,914,916,915,914,913,910,908,907,907,909,908,911,910,911,911,911,912,910,908,906,905,905,909,908,912,913,914,912,912,908,909,907,907,908,907,908,908,911,914,909,911,909,910,910,909,908,910,911,913,915,915,914,912,912,909,907,908,908,910,913,913,913,914,913,913,910,911,911,910,907,910,913,913,916,918,916,914,914,913,910,912,914,913,913,915,915,917,915,915,913,911,913,913,912,913,916,915,917,916,915,914,915,914,914,913,915,918,919,923,924,927,931,934,933,933,933,933,932,929,929,927,928,929,929,930,927,927,925,923,922,922,919,919,919,918,918,920,920,923,924,928,934,943,959,983,1023,1076,1139,1213,1281,1332,1349,1333,1270,1147,1019,891,763,684,717,778,839,876,898,902,900,898,901,903,908,911,911,911,907,905,903,902,905,907,909,911,912,914,915,912,911,914,913,914,919,920,921,921,923,923,924,925,925,924,923,923,923,925,928,932,932,935,935,936,936,933,933,932,933,936,937,938,944,946,946,944,943,943,943,946,946,948,948,952,953,955,957,953,954,951,952,949,951,951,955,955,958,957,956,955,953,950,952,950,950,949,951,953,955,956,954,956,955,957,961,961,964,967,970,972,974,973,972,969,969,968,962,961,958,956,954,953,950,947,945,941,939,936,934,931,929,928,926,924,926,926,927,928,924,924,925,924,925,926,929,932,931,932,932,933,932,932,933,934,938,939,941,943,946,946,947,946,946,946,944,945,947,946,948,949,952,951,950,945,946,945,945,943,944,946,946,944,944,943,942,940,938,938,937,936,936,935,934,935,935,933,933,930,929,926,923,924,923,927,928,930,931,931,928,927,925,919,919,917,921,919,920,920,925,925,925,923,923,919,920,916,918,917,921,919,923,922,923,924,922,919,916,918,916,917,916,918,922,921,920,922,919,918,916,914,918,916,917,919,919,921,922,919,920,920,918,916,915,917,916,916,920,922,918,922,920,918,918,915,916,919,918,918,919,919,920,917,917,916,915,916,916,917,918,917,919,919,918,918,916,916,914,912,913,915,916,919,921,921,921,920,915,916,915,912,912,915,920,925,926,930,934,935,936,936,935,936,935,935,932,933,931,931,928,929,930,929,928,929,927,928,927,923,921,922,918,918,917,918,918,920,923,927,932,940,950,969,998,1040,1093,1162,1233,1295,1337,1343,1309,1226,1098,970,842,714,681,725,788,844,879,896,895,894,894,899,903,907,912,910,908,907,906,904,905,905,908,910,912,912,913,910,910,911,911,916,916,919,919,921,921,919,919,920,919,921,924,925,927,927,929,930,929,930,930,932,931,931,930,929,935,936,941,941,942,941,942,944,943,942,946,947,948,949,950,953,955,955,954,953,954,950,951,953,951,952,954,953,951,950,948,946,946,947,949,950,951,953,955,954,954,959,960,962,962,963,967,967,969,970,970,967,965,963,959,956,951,949,950,947,948,946,942,936,937,934,932,928,925,925,923,923,924,924,927,928,927,926,926,924,922,923,925,926,927,928,931,932,933,932,931,931,934,932,935,934,938,942,941,939,941,944,944,944,941,941,942,942,943,946,948,949,947,944,944,943,941,942,943,941,939,938,939,939,936,938,937,935,933,931,931,931,932,930,931,933,933,930,929,927,923,923,922,922,921,922,924,926,922,923,921,920,918,917,916,912,915,916,916,917,916,918,916,917,912,909,908,908,908,911,914,915,913,909,910,911,910,909,909,910,910,912,913,913,912,914,912,909,909,907,908,908,906,910,910,913,912,912,910,911,907,907,907,906,909,911,911,911,909,908,908,906,906,904,905,906,907,908,910,909,910,909,910,909,906,905,904,906,904,906,908,910,911,910,909,906,906,905,906,905,907,907,910,911,911,912,912,909,910,910,910,909,911,911,912,916,914,914,914,909,910,910,910,908,910,914,915,916,916,918,919,920,925,924,928,929,929,930,928,928,924,922,920,920,919,919,919,920,921,920,920,920,916,914,911,911,914,914,918,923,930,941,958,989,1037,1101,1180,1258,1314,1338,1318,1240,1112,984,856,728,713,754,809,858,886,900,902,897,895,896,903,905,904,902,902,898,895,893,894,894,897,899,901,904,904,903,901,901,901,903,904,905,906,910,911,914,914,917,915,914,913,912,915,918,920,923,926,928,928,928,927,927,926,923,927,931,931,934,937,938,937,938,936,935,935,937,937,940,942,944,945,947,950,951,949,949,949,947,948,952,951,951,955,950,952,953,953,952,951,948,949,952,952,956,959,963,965,964,969,969,969,969,970,973,974,977,977,975,971,969,969,964,960,959,955,952,950,948,947,941,939,936,934,930,927,923,921,919,922,923,923,922,925,924,921,919,920,918,917,919,919,921,924,926,927,926,927,924,924,924,927,928,929,932,932,935,936,934,935,935,933,930,931,934,932,934,937,937,935,936,934,932,931,932,933,934,934,935,935,937,934,934,931,930,928,926,927,929,925,928,926,926,927,925,924,919,918,917,915,914,917,916,918,919,916,916,918,917,915,913,913,912,913,914,911,914,915,916,914,914,910,909,910,912,910,912,913,916,914,915,911,910,909,908,909,910,909,909,910,910,909,910,909,908,908,907,907,907,907,906,906,909,909,910,909,908,907,902,906,906,909,908,910,911,909,911,906,905,905,906,904,908,907,906,910,911,910,911,909,909,906,906,905,905,907,909,911,912,910,910,909,907,905,908,905,906,909,906,908,907,909,909,911,909,909,910,907,911,909,911,912,913,915,915,914,912,912,909,911,910,912,914,917,917,919,922,923,922,925,927,929,929,931,928,929,926,923,921,918,918,918,918,917,918,920,921,922,920,918,912,911,908,910,912,915,917,919,924,930,935,944,958,988,1023,1076,1140,1213,1275,1322,1342,1333,1283,1188,1060,932,804,706,705,748,806,857,884,896,895,890,885,885,891,898,898,901,901,899,897,896,894,894,896,896,897,894,895,897,897,899,899,901,903,905,906,906,906,905,903,904,905,908,910,913,915,916,913,912,914,912,913,912,916,918,920,922,924,926,927,927,926,926,927,927,928,933,933,938,940,939,942,942,940,938,941,940,940,945,947,949,950,950,951,950,951,947,947,946,947,948,948,950,951,955,954,954,953,953,951,950,950,953,953,957,962,962,965,966,968,967,967,969,971,974,973,973,973,972,966,962,957,952,948,945,945,942,943,942,943,940,934,933,932,927,923,923,923,927,928,927,929,929,926,925,922,923,921,927,927,928,931,930,932,932,932,935,935,934,933,936,937,940,941,944,945,943,943,945,942,943,944,944,945,944,944,946,945,945,945,945,943,940,940,941,938,936,936,938,938,934,937,935,931,930,929,929,929,929,929,929,930,927,928,925,925,924,924,919,921,919,920,921,921,925,923,922,922,916,916,915,917,917,917,918,918,921,921,921,920,918,917,916,915,914,916,918,919,920,920,919,918,916,914,915,914,914,914,916,919,917,916,916,916,914,914,912,912,915,913,914,917,918,919,917,914,913,911,909,908,913,914,915,916,919,918,915,915,913,913,913,912,911,912,914,914,918,917,918,916,915,914,915,913,913,914,918,918,920,920,920,918,915,915,913,911,913,916,917,921,919,919,916,916,915,915,910,912,911,913,917,918,921,919,919,917,917,920,926,928,933,935,935,938,934,937,932,927,925,922,923,923,924,927,925,925,924,924,923,916,916,916,913,916,916,921,925,931,935,943,953,968,996,1037,1088,1149,1219,1282,1328,1351,1337,1289,1188,1060,932,804,681,682,735,797,849,883,898,897,892,890,892,897,903,907,908,907,908,906,905,903,901,903,904,903,905,907,909,911,910,913,913,913,913,912,915,911,915,914,915,919,919,922,922,924,922,920,918,921,923,924,927,927,931,934,931,931,929,932,932,929,931,932,934,937,942,945,947,945,946,944,944,942,943,945,946,948,949,950,950,949,950,949,947,944,942,938,941,943,941,946,946,948,946,944,943,943,944,945,948,954,957,960,963,964,962,963,960,958,951,951,952,951,950,949,947,944,943,938,933,930,928,925,923,924,924,925,926,924,924,922,921,920,918,919,920,922,923,924,925,926,927,927,928,927,926,926,928,931,935,937,937,937,938,937,936,936,935,936,938,939,942,944,945,944,946,944,942,939,939,938,939,941,941,944,944,940,938,935,933,930,931,929,933,934,932,932,930,930,927,929,927,925,925,922,923,923,924,927,926,924,923,921,919,916,917,915,918,918,918,919,919,919,920,919,917,916,915,912,915,914,914,917,916,918,918,915,914,914,912,914,915,916,917,917,917,914,915,916,915,914,912,911,910,913,914,915,917,916,915,913,912,913,911,911,912,913,912,914,914,913,915,913,911,912,911,912,914,914,915,915,918,917,916,913,911,912,913,913,915,917,918,920,920,917,917,915,913,913,912,911,915,918,917,919,917,918,917,917,917,917,917,915,917,918,921,923,921,918,919,917,917,917,920,924,928,934,938,937,936,937,936,933,929,926,924,923,922,927,929,933,934,933,928,924,920,916,913,914,915,921,923,929,931,931,935,942,950,965,990,1026,1075,1136,1201,1266,1315,1338,1328,1279,1182,1054,926,798,691,690,736,801,850,880,892,893,887,882,884,893,902,908,909,911,909,908,903,902,900,899,903,906,906,907,907,912,913,913,912,913,911,911,910,912,913,915,915,921,922,921,919,923,919,920,920,923,924,924,925,927,929,930,927,930,931,930,930,932,933,933,937,938,940,941,941,940,941,941,941,941,943,945,949,949,948,948,950,945,945,945,944,945,947,949,947,947,949,946,946,945,946,943,940,940,943,944,946,948,948,952,951,952,955,953,955,956,959,964,966,967,966,963,959,956,953,950,948,944,942,940,939,938,936,933,931,926,923,922,918,918,917,918,920,922,922,920,920,919,917,918,918,917,916,916,921,923,923,922,923,925,926,923,924,922,926,928,931,934,937,937,936,936,934,935,935,935,937,939,939,941,940,940,937,937,936,936,933,935,936,936,935,938,935,935,936,933,929,928,928,926,925,927,926,930,927,926,926,922,918,918,920,918,919,921,920,922,922,919,920,919,916,915,915,914,911,912,917,918,917,916,915,915,911,910,910,911,908,912,914,914,913,911,912,910,909,911,909,910,910,912,912,915,912,911,908,907,908,909,908,908,909,910,912,912,913,913,912,908,910,910,906,903,905,909,910,911,913,910,910,908,909,906,907,905,905,908,907,909,908,907,908,908,909,910,905,905,904,908,909,912,912,913,912,912,909,908,908,906,908,907,911,911,913,913,911,911,910,909,911,910,911,912,914,913,915,915,915,914,915,914,914,916,921,925,928,931,935,932,933,931,930,929,928,926,924,923,920,923,926,924,925,922,922,919,917,912,911,913,914,919,922,923,924,923,928,933,938,954,983,1024,1081,1154,1232,1299,1339,1345,1313,1232,1104,976,848,724,711,750,809,856,884,897,897,893,888,890,894,902,906,909,906,904,901,900,898,896,895,895,899,900,902,902,903,904,904,906,902,902,901,903,904,907,909,914,915,915,914,915,915,914,915,916,919,922,921,927,926,927,929,927,928,928,927,930,928,931,934,934,939,939,941,938,940,939,938,941,943,947,947,948,949,951,950,951,948,949,949,949,952,953,953,954,956,955,955,955,954,953,954,957,956,959,961,965,968,968,970,971,973,974,975,975,975,974,972,972,968,968,963,960,955,950,946,944,941,939,937,935,934,931,928,925,924,920,920,918,919,920,920,921,921,920,921,920,918,916,916,918,919,922,923,928,930,926,926,924,925,925,923,926,927,930,933,934,935,935,935,932,934,934,932,933,935,936,936,937,939,938,936,936,936,935,933,934,931,934,932,935,936,933,933,930,927,924,924,925,926,925,928,927,928,924,925,924,923,922,919,918,918,918,920,922,922,921,919,919,917,916,913,914,916,912,913,915,917,914,915,915,912,913,912,913,912,912,914,914,913,914,915,913,912,910,909,908,908,911,912,911,913,912,914,912,912,912,909,910,910,912,913,913,914,914,912,910,909,905,905,905,907,911,914,915,918,915,913,913,912,910,909,910,910,912,913,915,916,916,915,911,911,909,907,906,911,911,912,914,916,913,913,913,913,911,910,912,912,913,912,914,914,914,913,913,910,911,913,916,922,923,928,933,935,934,934,933,934,930,930,929,926,922,921,920,922,923,923,923,921,917,914,909,913,913,917,919,921,923,928,935,940,959,983,1024,1080,1150,1230,1297,1341,1349,1313,1224,1096,968,840,716,714,759,817,867,895,900,903,898,898,896,899,902,902,903,902,902,905,904,904,903,902,901,901,903,902,905,908
