845,845,846,850,850,852,851,849,848,847,847,846,845,844,844,848,848,848,849,848,846,847,845,845,842,839,840,846,848,847,849,849,848,845,844,844,846,847,847,850,851,852,852,854,849,847,848,847,846,849,851,853,854,853,853,852,846,847,848,846,845,846,849,850,852,851,848,851,846,847,846,843,840,844,848,850,848,849,851,848,847,845,840,842,843,841,847,848,847,850,851,851,849,847,846,844,843,843,845,844,844,850,851,852,849,847,847,846,847,851,855,860,864,869,869,871,871,873,870,871,875,876,881,881,881,880,877,872,869,866,863,861,862,863,863,865,865,863,861,854,851,845,841,838,832,834,834,838,838,837,840,836,837,834,833,833,832,831,833,835,838,838,837,838,837,835,834,833,832,834,835,839,841,840,839,842,841,840,840,842,842,844,847,849,854,861,875,896,931,971,1012,1060,1110,1165,1209,1236,1225,1181,1104,1005,895,800,738,714,723,754,790,816,833,833,831,830,827,829,834,837,839,841,843,843,844,844,841,843,842,841,841,841,839,841,837,840,844,846,845,846,844,841,842,839,837,840,838,843,845,847,847,848,845,842,839,838,841,840,841,843,846,847,848,850,846,844,842,845,845,846,847,848,849,854,855,854,854,851,851,852,852,856,858,859,863,868,869,870,871,874,874,875,876,880,883,888,893,893,898,901,901,905,905,907,908,911,917,921,926,931,929,934,935,933,934,933,928,928,930,930,927,929,923,916,912,904,898,895,891,889,883,879,876,877,873,868,863,862,858,853,850,852,851,853,850,854,853,850,847,841,841,843,843,843,843,846,850,848,845,845,843,842,840,838,838,839,838,840,845,846,844,845,843,841,842,840,840,841,840,840,842,849,847,846,843,844,846,843,841,839,841,842,846,846,848,846,843,842,838,836,837,840,838,843,844,846,844,843,838,837,835,836,837,836,839,839,839,839,839,837,835,832,833,831,831,829,831,832,833,837,836,835,834,833,831,827,828,825,827,830,831,833,834,834,832,829,828,827,826,827,828,831,831,834,830,830,829,825,825,820,819,824,828,829,830,833,832,831,828,825,821,822,824,823,826,827,828,829,826,829,826,821,824,819,821,824,823,827,828,827,829,826,826,824,823,823,824,822,825,826,826,827,826,825,823,824,822,824,823,821,825,826,827,827,827,829,827,826,826,819,823,823,826,827,829,830,830,832,829,830,828,826,824,827,827,831,833,834,833,834,833,835,833,835,840,844,847,851,856,855,856,858,861,860,862,860,858,856,854,856,858,857,858,856,855,848,845,839,836,829,829,830,828,827,829,826,824,820,818,816,815,816,817,821,821,824,822,821,820,819,817,816,817,818,819,823,825,824,825,824,826,820,822,820,822,823,824,827,828,831,832,831,831,835,834,836,849,871,902,948,995,1044,1098,1152,1196,1218,1208,1158,1080,977,869,780,715,687,691,714,739,761,776,786,791,797,801,814,822,828,831,831,828,826,823,822,822,825,826,827,828,830,828,828,824,826,824,824,824,826,825,826,828,832,831,830,828,825,824,824,823,824,826,830,832,831,831,828,828,823,826,826,824,824,825,830,832,833,834,834,832,831,830,828,830,832,832,835,836,841,846,846,846,845,843,841,846,849,853,857,862,868,869,871,872,873,872,873,875,878,882,886,889,895,900,904,904,903,903,907,907,906,908,909,915,915,913,916,907,905,901,896,891,889,883,879,877,876,871,867,862,855,851,846,842,841,842,842,840,838,837,836,835,834,833,833,831,832,832,835,837,837,837,836,836,831,830,828,829,829,831,833,835,834,836,837,834,830,830,832,833,831,832,833,835,838,838,840,839,837,837,834,837,835,835,839,843,841,842,840,842,838,836,832,831,832,833,836,840,841,841,842,841,839,835,835,835,833,833,834,837,840,841,840,837,834,833,830,832,833,832,831,834,839,838,837,836,834,833,830,830,831,832,833,834,834,837,835,835,832,829,827,828,827,828,831,833,833,834,835,834,831,828,826,829,827,829,830,833,836,836,836,834,831,833,829,832,832,833,834,834,835,837,835,835,833,831,830,829,831,831,835,835,835,836,834,835,830,832,831,832,829,828,831,833,836,838,835,835,832,830,831,831,829,833,835,836,839,838,837,835,834,835,833,831,833,835,838,843,846,849,850,855,854,853,855,852,855,857,864,870,872,872,869,863,860,857,852,850,851,851,853,856,855,854,850,847,842,837,829,827,824,824,828,827,827,829,824,823,819,818,819,819,819,822,822,825,827,826,826,823,823,818,819,817,816,818,822,825,827,824,828,826,828,824,824,827,824,826,832,838,839,839,842,843,851,863,886,924,970,1019,1076,1132,1184,1226,1236,1213,1153,1064,957,846,756,705,700,720,757,791,810,820,823,819,821,823,824,830,833,833,836,836,835,832,830,832,828,830,832,831,832,832,836,836,837,836,834,832,831,830,829,831,834,836,836,836,836,834,835,833,832,834,832,833,835,835,837,836,839,836,836,836,835,835,833,836,841,841,844,842,843,842,839,838,841,839,839,843,847,849,853,854,856,858,858,860,860,861,864,867,872,876,883,884,888,888,886,889,893,895,898,903,907,910,913,915,918,921,921,918,919,917,917,921,923,923,924,922,920,914,908,903,899,893,888,887,884,882,880,879,871,867,860,856,854,851,845,847,848,848,848,848,842,841,841,841,839,838,838,839,839,841,844,843,844,842,840,838,836,836,834,835,839,839,843,843,842,840,838,839,838,834,837,841,837,842,845,846,846,843,841,837,837,841,839,841,843,844,847,847,846,843,842,837,837,839,839,841,844,844,847,847,846,845,842,839,837,836,834,835,840,840,842,841,838,839,837,835,831,830,828,830,832,833,839,838,836,837,836,834,832,829,828,832,833,834,835,835,836,835,830,826,828,829,825,827,829,832,831,831,833,832,828,828,826,825,825,824,828,828,834,834,830,832,828,827,827,824,825,827,827,830,831,829,830,828,826,825,825,825,825,826,825,829,830,830,831,830,828,830,826,825,826,827,827,832,833,833,832,833,832,829,827,827,825,825,827,829,829,833,835,832,831,828,826,826,827,825,830,831,833,834,834,834,834,831,830,827,826,830,829,830,836,837,837,835,834,827,829,831,831,831,832,836,838,836,837,833,835,831,830,831,828,829,828,831,836,838,837,838,837,836,833,833,832,833,834,839,840,838,839,837,836,838,839,836,838,841,845,850,855,860,860,864,857,857,859,861,863,864,867,872,873,873,870,865,863,859,855,856,852,853,853,859,860,856,851,847,841,835,831,829,828,828,830,829,832,831,832,826,830,828,826,827,828,826,825,831,831,835,834,834,831,831,830,825,827,827,830,832,832,832,835,835,836,836,836,836,836,836,841,845,845,850,856,864,872,898,937,985,1035,1090,1149,1202,1231,1228,1174,1086,972,855,761,711,704,732,768,801,826,832,834,830,828,829,828,833,833,837,839,838,841,840,840,839,838,838,838,837,833,833,841,840,843,846,843,843,838,835,832,831,835,835,839,839,840,843,842,842,839,837,838,836,838,836,840,840,844,845,843,842,839,840,839,840,838,841,844,846,849,850,848,851,851,848,849,850,851,852,853,856,860,864,865,867,869,867,870,870,871,874,879,884,889,892,896,896,894,898,901,902,904,907,913,917,922,923,923,928,930,925,924,925,925,927,926,925,921,920,917,911,907,904,898,893,889,881,880,876,876,875,870,867,864,861,857,852,852,850,851,852,851,854,851,852,848,847,843,842,841,841,841,845,845,847,847,844,838,834,834,835,835,839,839,843,847,846,848,846,844,843,842,842,841,840,840,845,847,850,849,848,848,842,843,841,840,844,843,845,849,850,849,848,847,843,842,844,843,842,844,845,849,849,850,847,844,846,840,840,839,838,840,841,839,840,843,844,840,837,833,834,833,836,837,841,841,843,843,843,839,835,828,827,834,833,834,838,838,839,840,839,833,833,831,832,833,830,834,836,838,841,840,839,838,837,832,832,833,833,833,836,835,838,838,835,834,833,832,827,828,831,833,830,832,835,835,835,837,834,832,829,828,829,831,834,837,835,835,836,835,833,831,828,830,828,830,833,836,836,839,838,832,830,827,825,826,831,834,834,840,838,840,836,836,834,830,827,829,828,829,831,833,833,832,832,831,833,830,827,828,829,829,835,840,840,841,845,847,848,846,847,850,850,852,854,857,861,866,868,869,865,863,857,855,855,848,851,855,860,859,857,854,847,840,834,827,823,828,826,830,830,829,827,823,822,820,816,816,816,820,821,821,823,823,824,821,819,819,816,816,818,816,821,820,824,824,827,828,825,825,823,822,824,828,829,833,834,831,835,835,838,848,867,899,944,990,1042,1095,1148,1201,1228,1225,1185,1107,1003,884,779,706,673,674,701,733,762,781,796,805,809,813,816,820,819,822,825,825,826,824,824,822,821,820,821,823,826,825,828,829,828,826,824,824,820,820,820,822,824,825,827,828,827,828,825,822,820,821,823,824,826,827,827,829,828,829,828,824,824,823,824,828,829,831,836,835,836,836,836,835,836,832,836,842,846,848,851,849,852,854,857,859,858,861,862,864,868,873,878,879,882,885,884,883,884,885,891,893,897,902,908,908,908,908,905,905,902,900,899,898,898,896,895,891,888,883,876,867,862,860,858,858,858,859,856,855,852,847,841,839,838,835,836,835,835,837,838,835,837,837,834,828,827,830,828,830,829,830,831,833,834,832,831,828,827,829,826,825,831,834,836,839,838,837,834,833,829,830,831,833,838,837,843,841,844,843,840,838,837,838,838,839,838,840,842,840,840,843,839,839,837,838,837,838,839,841,843,842,843,839,835,834,832,834,832,836,835,835,835,835,836,836,832,832,827,830,830,830,828,835,839,838,837,833,831,833,830,828,829,830,832,833,836,835,835,833,831,830,828,826,828,827,832,834,834,836,833,833,832,832,826,828,827,828,827,833,834,833,833,832,832,830,826,827,825,825,829,831,833,835,832,832,830,827,829,830,830,828,831,828,834,833,832,832,830,832,829,828,827,826,828,831,836,834,834,833,831,831,829,832,829,830,833,835,839,838,837,838,839,840,840,845,847,848,853,856,861,863,860,861,862,862,862,863,862,862,862,861,859,858,855,855,854,852,850,852,849,846,844,843,841,837,832,827,826,824,821,820,818,819,820,821,826,824,824,821,819,819,819,819,815,816,823,824,826,827,827,826,824,823,822,820,820,823,825,829,832,831,834,834,833,831,834,833,836,839,845,852,869,897,935,984,1034,1085,1142,1195,1235,1247,1223,1159,1064,950,840,748,700,692,716,750,783,804,815,818,820,819,820,827,830,834,833,831,829,829,830,830,834,831,835,838,837,833,828,831,830,831,834,835,839,838,838,837,835,833,831,832,832,835,835,838,837,836,838,838,836,835,836,836,835,834,836,838,841,839,840,840,836,836,834,837,839,841,843,844,847,851,853,855,851,852,856,854,855,858,861,865,870,870,874,875,877,876,878,882,885,890,892,897,899,901,908,907,909,908,912,911,915,917,921,925,929,930,930,931,929,927,922,922,916,914,913,912,910,902,899,893,889,880,876,875,868,866,863,860,861,858,856,852,854,851,848,844,844,843,843,843,847,845,846,846,844,841,842,840,839,837,839,842,845,843,843,845,843,841,840,839,838,841,842,843,845,845,848,847,844,842,843,841,843,845,846,846,848,850,848,849,849,845,847,845,844,842,845,846,849,851,849,850,845,845,844,843,842,842,845,845,846,847,849,845,843,842,837,837,835,835,838,842,841,841,840,842,838,837,834,835,832,833,834,835,838,838,840,837,837,834,833,832,827,827,832,831,835,838,837,835,833,831,829,827,827,830,830,831,833,833,832,831,832,828,828,827,826,826,826,830,830,831,833,831,829,829,826,827,825,825,825,828,827,833,834,832,829,829,827,823,823,826,826,829,829,828,831,830,829,826,828,828,826,827,829,830,832,832,831,830,830,828,826,826,824,827,829,829,830,830,831,830,829,828,824,826,827,825,827,831,831,832,833,832,829,827,827,823,827,824,827,831,832,831,832,833,830,828,826,828,830,831,834,836,840,846,847,853,852,852,850,850,849,852,851,857,862,865,865,862,856,852,847,845,845,846,849,849,851,853,851,846,838,833,828,824,821,817,819,821,823,821,819,821,819,817,819,817,818,817,818,819,819,822,821,819,820,818,815,816,817,819,818,821,823,825,825,827,824,825,824,825,826,828,832,836,838,844,847,854,869,895,935,978,1026,1082,1134,1187,1229,1240,1216,1153,1064,958,849,761,708,696,711,746,779,806,812,815,811,806,809,813,818,823,826,830,829,829,829,827,824,823,822,821,821,823,821,826,827,829,830,831,828,827,824,820,820,822,827,828,828,830,831,831,829,825,826,826,828,826,827,830,829,832,832,834,829,828,828,824,825,828,832,835,836,836,839,838,836,837,837,837,837,837,840,843,849,853,852,856,856,858,856,857,859,862,867,872,877,880,886,887,887,887,887,889,894,897,903,907,909,913,917,917,919,920,920,921,921,923,917,926,925,924,920,919,912,908,903,897,893,888,885,884,881,878,874,870,866,862,855,853,850,846,847,845,848,847,846,842,838,837,839,835,834,835,834,839,837,840,841,838,837,835,838,834,835,832,834,834,837,838,838,839,839,834,833,835,831,834,834,832,835,841,839,839,838,840,836,835,835,832,832,835,834,836,840,839,839,835,833,830,826,827,830,834,836,837,835,836,833,830,829,828,825,824,827,828,829,831,829,828,824,824,821,821,822,819,821,823,825,825,823,825,826,823,819,815,815,813,818,819,821,823,823,821,820,818,817,817,817,815,818,815,818,821,820,823,821,817,817,811,813,813,815,819,820,820,824,823,820,817,814,815,816,818,817,818,821,823,821,822,823,821,820,817,816,815,816,820,822,821,821,821,823,820,818,814,817,817,815,821,821,821,824,822,820,820,817,816,819,818,820,822,823,825,824,825,824,823,824,821,820,823,829,831,839,843,844,844,845,846,844,846,848,851,857,863,863,862,859,857,855,849,845,843,844,844,844,840,840,838,838,836,829,824,818,815,812,813,814,817,818,817,815,812,813,810,808,807,805,804,807,809,809,814,813,813,811,808,807,809,808,806,810,812,815,816,818,814,809,809,808,807,809,811,814,822,822,825,827,828,826,828,830,845,873,913,964,1015,1067,1120,1175,1219,1235,1214,1161,1075,976,866,772,708,678,680,698,729,753,766,774,778,780,791,799,807,817,821,824,821,816,809,808,810,810,810,812,816,822,823,821,823,820,816,816,815,813,813,812,812,817,822,823,822,823,820,819,817,814,813,818,816,817,823,823,820,817,817,817,817,818,819,822,822,825,828,830,829,827,827,828,828,826,829,829,832,836,836,837,840,842,838,840,839,842,846,849,850,856,859,861,861,864,867,870,869,871,875,881,888,889,891,892,895,899,898,901,900,898,903,905,907,913,917,916,917,913,910,903,898,894,889,887,886,881,880,874,873,867,862,859,849,847,842,841,842,843,841,843,841,836,834,832,829,826,828,827,832,834,836,833,832,831,829,829,826,824,825,826,830,832,834,832,831,831,826,825,825,826,829,832,834,836,836,841,840,839,837,837,834,833,834,837,839,841,845,847,846,844,842,841,839,838,837,843,844,846,846,845,843,844,841,841,840,838,836,839,837,841,841,840,841,840,839,836,835,833,831,833,832,835,838,840,840,837,836,834,835,834,832,833,833,835,833,835,834,836,834,833,831,831,830,832,835,837,837,836,834,834,831,830,830,828,829,830,831,834,833,834,832,836,834,834,831,831,831,832,834,834,838,836,839,838,831,831,833,831,830,832,832,836,840,837,836,835,833,831,833,832,833,835,839,839,842,843,843,842,842,845,848,849,853,854,859,861,865,866,870,872,870,872,870,868,866,863,865,864,865,865,864,863,860,861,857,852,848,844,842,837,839,837,836,832,830,826,823,820,819,822,824,827,828,829,828,831,829,827,826,826,826,826,827,830,832,832,833,833,829,830,827,827,827,829,831,836,837,837,840,837,839,839,841,842,842,846,856,866,899,938,987,1040,1096,1155,1214,1261,1279,1258,1201,1111,993,872,770,707,686,698,727,761,784,801,809,811,819,824,831,835,836,838,835,835,832,831,835,837,838,840,840,838,834,834,834,834,833,835,836,834,842,843,842,843,840
