1003,1002,1004,1002,1000,1004,1006,1009,1012,1008,1005,1005,1008,1010,1014,1017,1016,1017,1018,1020,1018,1020,1017,1018,1020,1024,1024,1026,1025,1024,1019,1025,1027,1026,1025,1023,1027,1029,1032,1034,1035,1037,1037,1036,1035,1035,1032,1033,1036,1038,1042,1041,1043,1043,1043,1043,1042,1042,1042,1045,1050,1055,1056,1051,1045,1045,1048,1050,1057,1059,1061,1060,1062,1059,1055,1054,1052,1050,1052,1056,1059,1059,1056,1052,1051,1050,1049,1045,1045,1040,1041,1040,1033,1031,1024,1021,1022,1024,1027,1026,1021,1020,1018,1015,1015,1014,1011,1011,1014,1014,1015,1011,1008,1003,1003,1004,1003,1003,1000,1003,1002,1005,1003,1002,996,994,995,996,994,991,989,988,987,992,993,989,988,983,986,986,987,986,987,984,985,986,982,978,978,978,982,986,988,989,985,984,980,982,979,981,983,983,989,990,986,983,979,978,982,987,991,990,989,988,985,989,987,986,985,985,989,992,989,988,988,984,986,990,992,992,988,992,992,993,993,989,989,987,991,995,997,998,995,998,998,1000,998,991,989,989,990,994,995,993,990,991,992,992,992,989,986,981,980,982,980,983,979,977,977,974,966,966,963,961,969,971,972,972,969,968,965,964,965,965,966,967,975,982,986,984,982,978,979,977,978,979,980,981,987,988,992,989,984,982,985,990,992,994,994,990,990,990,989,987,989,983,985,987,990,990,987,983,983,974,964,960,955,960,964,974,986,998,1008,1014,1023,1029,1038,1046,1064,1089,1126,1157,1169,1167,1158,1138,1119,1089,1060,1034,1016,1001,995,990,990,990,989,991,990,990,986,985,984,983,983,989,991,993,990,989,990,993,989,987,986,986,984,992,993,998,997,996,993,994,989,989,987,987,991,991,994,999,999,1000,998,1000,999,997,994,993,998,1001,1003,1005,1002,1002,1002,1008,1006,1004,1001,999,1003,1006,1009,1008,1007,1009,1008,1011,1012,1008,1007,1008,1008,1009,1013,1016,1015,1016,1017,1020,1019,1018,1017,1017,1018,1021,1022,1020,1017,1019,1024,1027,1026,1024,1019,1022,1020,1023,1024,1022,1021,1019,1022,1023,1025,1025,1023,1023,1026,1025,1025,1022,1017,1015,1019,1015,1014,1014,1013,1007,1010,1011,1009,1004,1000,995,994,993,991,990,989,989,989,991,989,986,981,978,979,976,978,978,973,973,976,979,978,976,973,972,971,970,967,972,970,969,972,972,973,972,971,969,965,964,965,963,962,962,965,968,969,973,967,965,968,966,963,960,959,957,961,964,962,962,961,958,961,961,960,960,958,954,953,957,960,960,960,958,960,962,962,959,955,956,957,959,956,958,955,955,958,958,958,957,956,955,957,959,960,959,957,955,956,959,962,964,964,961,962,963,966,961,963,956,961,963,965,965,964,966,967,967,964,963,962,961,960,959,960,960,962,965,970,970,971,966,965,963,958,959,962,963,964,965,970,975,976,977,975,971,971,972,975,975,974,978,980,981,980,974,972,971,970,970,971,969,968,967,970,970,966,964,959,955,956,958,957,955,954,952,955,955,954,949,946,943,944,947,944,947,944,941,944,946,946,948,947,948,949,950,953,953,953,955,962,965,967,965,966,965,965,966,965,964,966,968,972,973,977,977,976,974,972,973,973,972,972,974,979,984,982,979,974,974,973,975,974,971,963,957,948,941,943,946,950,956,966,978,992,999,1006,1013,1023,1040,1068,1102,1132,1154,1162,1157,1148,1128,1104,1077,1053,1035,1019,1000,992,988,988,987,988,987,987,986,987,988,991,990,992,992,993,997,997,996,995,990,994,996,997,999,996,997,999,1000,1002,1003,997,997,996,1001,1004,1006,1005,1007,1007,1009,1009,1009,1007,1004,1007,1015,1019,1017,1017,1013,1014,1017,1016,1017,1016,1023,1027,1027,1027,1026,1025,1021,1021,1030,1033,1037,1035,1034,1034,1034,1036,1035,1035,1037,1040,1046,1045,1043,1040,1037,1036,1038,1039,1042,1039,1040,1041,1044,1041,1035,1030,1029,1029,1033,1030,1031,1024,1022,1020,1019,1019,1012,1011,1009,1009,1011,1008,1006,1002,999,999,998,998,997,997,995,997,997,998,998,996,991,990,990,991,989,987,986,984,986,989,991,987,982,982,980,985,986,984,981,980,982,980,976,974,973,976,979,980,982,982,975,978,978,977,973,969,968,973,976,982,982,977,972,970,969,967,970,970,971,977,980,979,977,974,974,973,976,980,980,980,981,981,982,984,980,977,981,981,981,983,985,983,984,986,990,990,989,988,987,988,993,995,993,991,990,991,991,989,989,988,990,991,997,1001,1005,1001,1002,1005,1006,1006,1002,999,998,999,1004,1006,1004,1000,993,993,996,997,999,995,996,998,998,996,990,982,981,981,985,984,987,985,984,983,984,983,977,978,982,988,991,992,986,987,988,991,997,999,1004,1007,1003,1003,1002,1006,1008,1006,1011,1013,1017,1016,1017,1010,1007,1010,1013,1015,1016,1016,1017,1019,1020,1019,1018,1017,1015,1010,1006,996,990,989,1000,1017,1032,1046,1052,1060,1064,1070,1084,1108,1142,1176,1201,1205,1193,1172,1141,1103,1072,1051,1037,1026,1022,1016,1014,1015,1019,1025,1023,1023,1019,1018,1016,1016,1016,1019,1022,1027,1028,1027,1024,1020,1019,1019,1024,1028,1027,1027,1025,1026,1027,1023,1026,1025,1025,1029,1033,1033,1030,1025,1024,1029,1033,1032,1033,1035,1034,1037,1032,1035,1032,1033,1031,1034,1037,1038,1039,1038,1039,1040,1042,1043,1042,1038,1038,1041,1045,1049,1044,1038,1039,1037,1037,1040,1042,1044,1046,1047,1048,1046,1043,1042,1038,1038,1040,1044,1043,1040,1033,1030,1026,1025,1025,1022,1021,1019,1021,1020,1015,1006,1001,1000,1001,1003,1001,999,992,995,991,987,985,983,986,990,991,992,991,986,984,983,985,984,984,982,980,981,982,983,978,977,972,973,976,978,971,970,969,973,975,976,974,970,965,968,967,969,970,966,966,968,969,969,966,960,958,962,964,965,963,964,961,962,964,964,965,963,967,969,972,972,970,966,962,964,963,966,970,970,969,970,972,970,968,963,963,968,972,974,974,970,972,974,975,970,970,967,968,972,974,975,975,973,974,973,979,982,983,983,981,984,987,987,983,980,976,976,979,977,976,973,969,969,971,973,970,966,962,962,963,963,961,958,955,957,955,954,950,942,942,945,947,951,951,949,949,950,947,947,948,951,954,963,966,968,969,969,969,968,968,966,970,968,972,976,976,977,976,974,973,977,977,980,982,980,980,980,981,980,980,976,977,979,982,982,976,967,957,949,938,932,938,945,956,973,988,999,1004,1009,1021,1050,1095,1142,1168,1175,1162,1147,1128,1091,1055,1026,1010,999,994,991,991,990,987,989,991,991,991,985,988,992,995,995,993,990,992,995,998,999,1002,1001,999,998,1001,1002,997,997,999,1005,1008,1009,1004,1001,999,1000,1005,1009,1011,1010,1011,1011,1013,1010,1009,1006,1008,1012,1017,1020,1017,1019,1014,1019,1026,1029,1030,1029,1028,1026,1027,1028,1030,1031,1033,1037,1035,1037,1036,1033,1034,1035,1036,1037,1040,1038,1036,1039,1039,1035,1033,1027,1025,1026,1026,1024,1021,1018,1014,1010,1009,1007,1008,1006,1004,1004,1003,999,993,989,988,991,993,995,993,986,984,983,984,984,983,982,986,988,988,984,976,972,971,974,977,978,979,976,974,971,969,971,968,968,969,972,969,968,964,961,960,960,964,960,962,961,959,960,959,963,961,957,959,960,962,962,961,960,959,958,962,964,962,963,962,965,967,964,965,964,963,962,967,966,970,967,970,968,969,969,967,966,968,972,976,978,974,972,970,970,973,974,981,984,988,988,988,986,983,982,984,988,991,991,987,978,972,972,973,975,976,977,975,974,972,970,965,965,965,968,971,971,965,960,957,959,960,963,963,963,961,962,962,965,968,969,971,975,982,985,984,981,979,979,983,985,986,985,985,988,996,998,995,996,992,995,995,993,997,996,997,999,1000,997,995,986,981,973,968,967,978,990,997,1006,1016,1028,1036,1040,1050,1075,1117,1155,1180,1178,1163,1139,1114,1084,1060,1039,1019,1006,1005,1005,1006,1009,1011,1014,1017,1015,1011,1007,1007,1011,1017,1022,1022,1019,1019,1017,1020,1021,1017,1020,1021,1026,1031,1029,1029,1028,1027,1030,1031,1034,1032,1026,1030,1033,1035,1034,1035,1036,1034,1035,1040,1041,1039,1038,1039,1043,1048,1049,1049,1047,1045,1046,1048,1052,1055,1057,1057,1056,1058,1059,1059,1059,1064,1067,1072,1070,1066,1065,1062,1065,1065,1070,1073,1075,1074,1076,1073,1072,1072,1070,1074,1075,1079,1077,1071,1066,1061,1060,1063,1067,1064,1058,1055,1050,1048,1045,1042,1039,1037,1037,1037,1037,1033,1028,1026,1025,1025,1027,1028,1028,1027,1028,1026,1027,1027,1020,1014,1014,1014,1018,1016,1015,1016,1018,1016,1014,1010,1007,1006,1012,1014,1012,1011,1006,998,1001,1002,1003,1003,1005,1005,1004,1003,1003,1000,996,998,999,1004,1001,1000,999,997,997,999,1001,999,1001,1007,1005,1004,1002,999,998,1000,1001,1008,1006,1008,1006,999,1002,1005,1007,1008,1009,1007,1008,1011,1009,1007,1002,1002,1004,1006,1006,1007,1006,1006,1008,1012,1013,1013,1015,1015,1018,1021,1019,1018,1017,1016,1014,1017,1013,1007,1007,1004,1002,1004,1000,996,992,992,991,995,997,994,989,987,985,982,978,976,972,972,976,981,982,980,973,969,970,971,973,977,978,981,983,987,992,991,989,990,993,995,995,995,993,994,996,997,995,996,997,997,1002,1003,1004,999,995,995,997,998,1003,1003,1001,1000,999,1000,997,992,981,970,964,967,974,984,995,1008,1019,1030,1033,1037,1042,1055,1080,1115,1150,1173,1173,1158,1140,1108,1074,1043,1019,1011,1009,1008,1006,1003,998,995,996,998,999,997,1000,1003,1004,1007,1005,1001,1000,1001,1004,1004,1007,1008,1005,1003,1002,1004,1004,1001,1005,1005,1006,1014,1014,1012,1007,1005,1007,1009,1013,1015,1012,1014,1014,1016,1017,1013,1014,1012,1014,1019,1019,1019,1017,1019,1021,1024,1022,1021,1023,1023,1024,1028,1030,1030,1032,1032,1032,1034,1035,1031,1034,1032,1034,1040,1040,1035,1034,1037,1036,1039,1039,1040,1040,1041,1043,1042,1043,1038,1035,1030,1030,1031,1029,1031,1029,1029,1027,1023,1017,1015,1010,1006,1006,1008,1010,1007,1003,1001,997,996,995,990,989,991,992,995,992,990,986,979,979,980,983,986,985,984,985,986,983,980,974,974,976,979,980,975,975,974,972,971,968,972,971,968,970,970,968,970,967,965,967,967,966,965,961,962,962,965,967,966,964,960,964,964,962,961,958,958,962,963,964,965,961,956,958,960,962,961,961,964,966,967,966,964,961,960,961,966,966,965,964,966,966,969,967,965,962,962,963,968,970,970,971,966,967,968,970,971,971,978,978,985,986,983,979,977,980,984,988,987,988,982,983,981,976,975,969,964,964,970,967,967,964,960,960,962,961,957,952,948,952,954,953,951,944,943,946,946,945,942,941,944,947,951,954,952,951,952,957,959,961,964,965,966,967,967,963,966,963,966,972,977,980,978,975,972,975,974,971,971,975,975,980,983,980,976,972,969,967,965,957,946,938,935,945,958,967,978,986,996,1007,1016,1032,1060,1099,1139,1163,1164,1152,1136,1109,1076,1047,1023,1008,999,990,987,985,986,986,988,987,987,988,988,989,991,987,983,987,987,989,990,991,992,993,994,993,990,990,991,995,1001,1002,999,996,994,996,997,1000,1000,1001,1004,1006,1007,1003,1003,999,999,1004,1010,1013,1012,1011,1008,1007,1008,1009,1010,1011,1014,1018,1019,1021,1019,1016,1016,1018,1023,1028,1026,1028,1029,1027,1030,1031,1031,1027,1029,1033,1037,1039,1038,1036,1038,1036,1038,1039,1037,1034,1033,1035,1039,1038,1036,1032,1029,1029,1024,1022,1018,1015,1014,1018,1018,1018,1013,1010,1004,1001,998,997,996,996,997,998,997,995,986,985,985,986,989,991,990,990,987,987,984,983,981,976,979,983,986,985,984,979,977,977,978,977,975,975,975,977,983,981,978,971,969,969,976,978,976,973,968,972,970,969,968,966,965,968,972,968,966,969,969,970,971,972,969,969,968,969,973,974,973,973,974,972,976,976,973,974,970,969,975,979,977,979,978,976,980,976,977,977,980,979,984,985,985,983,978,981,982,983,986,986,994,993,997,998,995,992,994,994,997,998,999,1000,1000,1003,1003,1004,998,993,990,991,995,998,997,996,991,988,986,984,981,980,982,983,984,984,979,977,973,971,971,972,971,968,969,973,971,972,969,960,965,967,971,971,973,975,974,981,985,989,989,990,989,990,990,985,984,983,984,993,999,1002,1004,1001,998,1003,1001,1002,999,999,1002,1005,1009,1010,1007,1005,1003,1004,1005,1004,1005,1006,1004,999,994,984,982,981,990,1001,1017,1034,1046,1052,1057,1059,1065,1068,1077,1091,1122,1161,1187,1199,1189,1172,1151,1122,1089,1060,1037,1027,1023,1017,1018,1017,1016,1011,1012,1011,1011,1012,1012,1011,1011,1014,1017,1019,1020,1017,1015,1019,1022,1022,1021,1021,1017,1017,1023,1025,1025,1025,1023,1026,1027,1027,1024,1025,1024,1027,1029,1031,1032,1027,1027,1026,1029,1031,1028,1028,1028,1034,1037,1039,1038,1038,1038,1034,1035,1036,1037,1038,1039,1041,1046,1047,1045,1041,1040,1040,1038,1041,1043,1044,1047,1050,1053,1053,1051,1045,1040,1042,1047,1048,1051,1052,1054,1058,1059,1059,1055,1046,1047,1049,1052,1052,1054,1054,1052,1054,1051,1050,1048,1045,1039,1037,1041,1041,1038,1035,1031,1029,1025,1024,1019,1017,1014,1013,1012,1009,1009,1005,1002,1003,1002,1003,999,991,990,991,994,994,993,987,988,988,988,987,985,981,981,982,982,981,983,981,982,980,980,977,975,972,971,972,976,977,974,968,968,967,967,964,961,963,961,965,966,969,967,960,956,954,956,958,958,958,957,957,958,956,949,949,947,952,955,959,958,955,955,956,956,953,950,949,948,951,957,955,953,954,950,954,952,958,954,954,954,953,958,959,956,955,955,954,954,957,955,957,958,959,960,966,963,966,963,969,969,973,976,973,977,979,980,977,974,972,972,971,970,972,968,967,965,961,960,954,951,945,946,948,952,950,949,948,944,944,943,938,937,935,936,939,938,940,934,931,927,924,928,927,929,928,927,932,934,934,932,928,928,933,940,945,950,948,948,950,949,949,950,949,951,954,954,957,957,957,955,958,958,958,955,953,952,956,960,959,960,957,955,958,952,950,943,930,917,912,912,918,926,934,947,959,968,976,985,996,1015,1050,1093,1132,1151,1150,1134,1122,1106,1078,1042,1018,999,988,979,970,971,965,965,966,971,972,974,974,975,974,970,969,967,968,969,976,980,981,977,973,973,972,977,979,981,980,981,984,985,985,983,982,980,983,984,986,985,985,983,985,992,990,989,989,990,990,993,996,995,994,995,995,995,998,1001,997,998,1001,1004,1004,1006,1006,1006,1005,1008,1008,1008,1007,1008,1012,1013,1019,1017,1016,1017,1015,1017,1018,1017,1017,1017,1023,1026,1025,1020,1016,1015,1016,1022,1023,1024,1022,1020,1020,1016,1009,1003,1002,998,998,1002,999,994,990,984,985,983,983,978,978,979,981,980,975,973,969,968,967,969,971,970,966,966,966,966,966,964,961,960,959,962,963,962,959,958,959,960,959,958,955,953,953,954,955,953,952,951,951,955,954,951,950,947,947,945,947,951,948,947,948,949,946,941,941,939,943,947,950,951,948,945,946,944,943,945,942,946,950,954,954,954,949,946,948,950,951,953,954,958,957,960,960,957,954,951,952,956,956,960,959,958,961,961,962,962,960,961,966,969,975,978,976,977,978,980,979,982,980,977,976,980,985,983,984,982,981,981,978,977,974,971,969,969,964,963,961,963,962,962,962,957,954,952,955,957,958,956,953,951,949,949,948,947,946,947,950,954,956,951,949,949,950,951,952,953,959,962,972,971,971,970,966,963,967,972,976,980,981,983,982,982,978,977,977,979,983,986,990,990,988,986,986,988,986,986,986,984,987,985,980,973,963,956,955,962,974,987,998,1011,1023,1030,1038,1048,1068,1103,1149,1179,1188,1177,1163,1144,1120,1087,1063,1040,1023,1011,1005,1006,1006,1006,1004,1006,1009,1012,1009,1009,1005,1005,1008,1011,1014,1017,1015,1017,1015,1018,1016,1014,1013,1018,1024,1027,1028,1027,1023,1018,1020,1020,1026,1027,1025,1029,1033,1034,1033,1029,1027,1023,1027,1031,1033,1036,1037,1040,1040,1041,1039,1038,1035,1037,1039,1042,1045,1042,1045,1045,1047,1046,1047,1048,1047,1050,1053,1058,1063,1060,1058,1059,1060,1063,1065,1062,1062,1061,1064,1066,1068,1069,1067,1067,1067,1066,1066,1065,1062,1063,1066,1071,1069,1070,1064,1060,1059,1056,1055,1053,1052,1050,1050,1052,1049,1046,1040,1033,1031,1028,1027,1026,1025,1025,1027,1028,1028,1022,1018,1014,1013,1011,1011,1016,1011,1015,1016,1013,1012,1008,1004,1003,1004,1007,1009,1009,1007,1005,1004,1003,1002,998,999,995,998,1001,1004,1002,998,994,993,992,992,991,988,989,989,991,990,990,985,983,982,984,984,984,979,979,980,982,980,981,979,975,979,981,980,979,975,976,977,977,981,978,976,974,976,977,976,972,972,973,980,981,981,981,977,976,976,978,980,981,982,983,984,988,985,984,983,984,988,996,1000,1002,1004,1006,1004,1004,1003,1002,1001,1002,1005,1004,1005,1001,996,995,992,992,991,989,987,985,984,985,980,976,971,964,965,968,967,968,964,961,961,965,963,960,957,954,957,957,956,955,953,951,952,954,955,952,949,949,949,950,955,959,959,961,964,965,968,965,968,967,969,973,972,972,971,970,970,974,972,971,972,974,976,979,982,977,974,970,970,968,965,966,955,948,933,927,926,936,941,955,970,987,998,1007,1012,1020,1044,1083,1126,1152,1165,1161,1146,1122,1085,1042,1013,997,987,987,985,985,984,983,982,981,980,979,977,979,981,984,986,985,984,983,984,988,986,989,985,987,990,994,995,995,995,994,995,996,994,995,996,994,997,1001,1001,1000,994,994,999,1004,1007,1008,1007,1005,1004,1006,1007,1005,1005,1010
