842,860,863,858,848,841,830,824,819,814,811,815,819,824,826,824,826,828,830,827,829,826,824,822,825,828,831,830,828,829,827,829,829,823,824,825,829,835,837,837,839,836,841,839,839,836,833,833,838,839,842,842,840,841,843,847,847,847,843,841,843,845,850,851,852,848,850,849,853,852,848,849,849,853,859,857,857,854,857,859,857,854,847,846,851,852,853,851,851,849,850,853,851,847,844,844,846,852,850,847,847,849,848,849,845,842,839,841,843,846,846,846,846,846,844,842,839,832,836,833,835,835,835,832,832,830,833,836,835,827,825,823,825,830,833,830,831,829,829,831,831,826,825,823,824,829,827,828,831,833,833,826,824,827,826,827,831,831,830,832,835,835,838,836,834,829,833,838,840,842,843,844,848,851,855,857,859,858,861,868,875,876,877,871,873,876,876,878,876,872,867,864,865,866,866,864,862,858,857,847,843,832,832,829,829,832,830,829,826,827,825,829,826,818,817,818,823,825,826,821,821,817,812,803,789,780,778,791,810,841,878,918,964,1002,1039,1066,1093,1113,1129,1139,1147,1142,1133,1120,1110,1090,1051,990,923,864,828,813,811,824,836,840,848,842,838,824,810,806,800,801,805,806,805,805,808,810,812,813,805,804,807,808,810,810,808,806,808,810,813,812,811,805,807,808,811,813,815,814,816,816,821,820,815,813,812,810,815,816,819,821,824,827,825,824,820,818,821,824,826,828,825,826,828,829,831,832,826,825,821,824,829,830,830,832,834,835,837,835,833,829,829,828,832,834,832,830,830,829,831,830,824,819,823,822,822,828,824,822,826,825,827,824,820,818,816,817,820,820,821,819,822,825,823,819,816,813,815,814,815,812,812,811,818,816,811,807,802,799,803,801,801,799,798,799,799,802,800,798,793,795,798,798,800,798,803,806,811,809,804,806,804,804,807,806,806,805,811,815,819,818,817,817,818,818,817,820,818,821,828,833,843,846,846,847,847,851,852,851,849,849,852,856,854,851,849,839,840,839,839,831,827,825,824,823,822,815,810,807,805,806,806,800,796,795,799,800,804,805,801,799,795,800,800,797,792,789,784,784,774,766,763,770,784,807,843,882,919,958,992,1026,1064,1093,1115,1129,1135,1135,1131,1124,1108,1085,1058,1009,948,887,837,808,797,801,812,818,822,820,814,806,801,795,787,785,784,782,784,782,782,787,791,791,795,792,788,792,792,794,788,787,784,788,795,796,800,798,794,789,795,791,793,789,788,793,794,799,802,800,799,800,801,801,801,801,798,798,804,808,809,807,806,805,808,813,812,809,809,810,817,817,819,816,811,806,810,814,816,815,810,811,816,818,824,821,816,813,814,817,814,813,809,810,812,814,816,815,808,806,810,809,805,805,803,802,807,813,811,811,807,804,803,806,804,803,800,801,803,805,810,805,803,799,795,801,799,796,791,793,794,797,798,796,796,792,790,790,792,791,789,787,788,791,795,795,796,795,790,792,794,795,794,793,792,794,797,802,799,793,793,794,791,795,798,798,801,805,810,809,811,810,806,809,815,815,822,823,830,839,844,846,847,845,843,843,847,840,843,839,840,839,843,841,838,833,830,829,829,827,822,813,810,805,810,810,811,805,801,801,800,799,794,794,791,795,798,798,799,798,791,788,789,788,788,785,777,765,762,760,768,783,803,832,869,911,955,995,1033,1067,1100,1123,1136,1140,1131,1123,1112,1098,1074,1039,982,920,865,827,804,800,802,813,822,825,824,818,806,795,787,784,787,785,783,783,783,785,790,788,790,789,788,791,791,792,788,784,783,786,788,790,788,788,788,788,792,792,792,790,789,792,795,798,799,797,793,795,797,798,798,793,789,793,793,798,801,801,804,807,811,814,810,806,801,801,802,811,814,811,809,807,814,813,814,809,806,805,807,809,817,814,814,814,816,817,817,819,814,812,808,812,815,817,818,818,816,813,814,817,814,811,810,813,816,816,816,815,812,811,814,814,810,807,806,806,808,812,814,811,809,806,812,813,814,810,805,804,804,807,812,808,807,808,806,808,804,802,796,797,799,803,806,805,801,797,795,797,799,796,795,797,800,804,807,810,811,808,809,812,811,809,811,809,810,814,819,821,819,815,813,812,814,818,823,824,825,832,836,845,848,850,851,853,854,856,858,860,861,857,859,859,860,858,853,846,843,844,844,846,843,837,833,828,827,825,822,817,816,818,819,815,812,811,812,813,812,813,809,807,805,806,807,810,800,792,788,779,772,767,774,789,812,845,888,927,967,998,1028,1057,1088,1115,1134,1145,1148,1151,1150,1144,1130,1106,1066,1015,957,901,856,823,814,819,830,846,856,854,845,833,819,817,810,806,800,794,794,799,807,813,813,812,814,811,810,807,807,805,802,807,813,817,817,814,812,812,810,807,806,802,799,802,807,816,819,816,815,812,811,813,816,814,810,815,817,821,821,824,825,821,822,822,824,819,822,819,825,830,833,837,836,825,824,825,827,831,832,833,832,833,839,839,837,832,829,827,827,834,838,838,836,836,840,837,840,838,833,831,835,834,835,832,833,833,833,833,830,832,832,832,835,829,822,825,826,831,836,838,834,829,825,825,827,822,825,825,827,830,832,829,827,824,821,825,825,826,826,824,827,831,834,832,825,816,816,815,819,824,828,827,832,832,834,831,830,828,825,832,831,835,835,834,833,833,846,852,856,853,853,857,859,865,863,868,874,872,877,875,869,867,862,860,857,853,853,855,862,867,871,864,856,847,838,837,836,835,834,828,829,832,831,833,830,827,823,826,828,830,829,824,822,824,826,823,816,802,793,788,788,796,811,834,865,908,951,992,1029,1057,1078,1104,1126,1139,1146,1144,1145,1135,1124,1106,1069,1011,941,884,843,822,821,831,848,858,864,859,846,837,826,822,815,814,816,814,820,826,828,827,828,827,827,829,827,826,823,823,825,831,830,830,829,824,827,827,830,829,825,825,827,834,838,835,831,828,829,830,831,835,831,832,830,835,839,845,843,840,836,836,835,840,842,840,841,847,850,852,852,847,846,847,848,849,847,844,847,849,850,851,850,851,851,852,850,845,843,843,845,847,850,850,847,845,845,847,845,845,842,842,839,844,846,844,845,846,848,848,846,842,838,839,844,846,848,846,843,842,842,844,844,841,839,838,841,844,843,841,837,838,837,839,838,836,830,831,835,836,843,842,840,837,837,836,838,834,835,834,838,841,841,839,842,841,842,843,839,836,834,839,844,844,846,844,840,841,845,848,850,847,846,842,849,857,858,859,856,859,869,874,875,877,873,877,881,884,885,883,880,877,878,877,877,870,865,865,868,871,871,867,858,851,846,845,843,839,834,832,835,838,837,838,834,830,827,829,828,829,824,824,827,829,826,822,813,803,795,792,794,802,823,858,900,941,982,1014,1044,1074,1105,1126,1140,1145,1140,1135,1128,1119,1103,1077,1034,973,907,864,831,812,817,827,844,854,856,851,837,823,821,816,813,810,810,811,814,816,817,817,815,813,813,814,818,817,812,811,811,816,819,821,820,813,815,816,818,819,818,817,817,823,827,826,824,822,824,824,821,815,817,819,825,829,828,826,824,828,828,833,832,830,825,828,832,835,837,836,834,831,833,834,832,834,831,831,833,836,841,842,838,837,838,838,838,836,830,831,834,837,840,837,834,832,831,832,833,836,829,825,827,830,835,835,835,828,825,824,826,829,828,821,822,825,829,828,824,822,822,820,821,818,815,815,815,820,820,819,817,813,812,811,811,811,807,802,805,808,811,812,810,809,807,807,807,806,804,802,800,808,812,815,811,806,810,807,809,810,808,806,806,812,821,822,820,819,816,821,821,822,818,822,824,836,840,846,846,849,849,852,852,857,853,851,850,853,853,853,848,843,840,838,835,837,831,825,825,820,817,814,810,812,812,809,806,802,797,797,799,805,803,806,802,801,803,802,801,795,789,784,782,772,763,766,769,782,812,843,879,917,950,988,1021,1057,1091,1112,1125,1129,1127,1125,1114,1099,1086,1067,1037,989,937,877,830,802,794,800,814,825,826,819,815,807,803,799,795,788,787,788,790,792,789,784,785,790,792,798,795,793,790,788,791,793,793,792,788,789,795,800,802,801,795,793,791,794,797,795,796,794,797,801,805,805,802,796,799,801,798,802,803,806,804,804,809,811,811,808,806,808,810,814,816,815,814,815,816,817,818,813,807,811,811,813,814,817,816,816,821,820,816,809,806,809,811,809,810,812,810,814,814,815,811,809,803,805,808,807,812,808,807,806,810,811,810,801,804,799,801,802,807,806,804,800,805,808,806,800,794,792,792,795,798,794,793,792,790,790,793,788,786,782,780,781,780,786,784,785,782,782,783,785,787,786,782,779,784,790,796,795,793,789,787,789,785,785,785,788,788,794,797,801,802,797,801,803,804,800,801,801,806,813,823,829,828,827,827,830,837,837,836,835,833,840,842,842,840,834,827,830,831,826,826,822,823,818,817,820,813,808,803,798,794,793,791,790,787,786,789,790,795,792,790,783,784,784,787,789,791,787,784,782,780,778,763,752,750,756,774,797,827,871,907,948,988,1024,1059,1086,1105,1120,1123,1120,1110,1100,1089,1068,1039,988,926,866,821,796,788,797,809,820,823,820,814,808,800,789,783,777,777,780,787,784,782,781,779,782,785,787,784,782,779,782,786,789,789,787,788,790,791,791,790,788,787,787,792,793,794,792,790,791,791,795,794,792,792,789,790,799,802,804,802,803,805,806,805,804,802,805,811,812,811,809,811,811,813,811,810,805,804,809,809,812,812,808,808,811,816,814,808,809,808,809,815,819,822,819,816,814,818,818,816,810,806,805,804,808,810,805,810,816,816,813,813,810,805,807,811,815,814,814,810,814,818,817,815,811,807,804,805,811,809,809,807,806,804,804,800,800,798,798,796,799,802,796,800,799,800,799,799,796,797,799,801,807,807,806,807,813,813,813,812,808,815,819,825,826,828,832,835,841,844,847,848,845,851,853,858,858,858,861,857,857,859,857,851,846,842,839,842,847,846,840,837,832,829,824,823,816,812,811,812,813,813,810,810,809,811,809,809,809,805,809,812,809,807,798,787,777,770,771,781,802,841,884,927,965,1002,1036,1071,1103,1124,1141,1147,1152,1151,1143,1134,1112,1080,1030,973,913,865,828,812,808,826,837,848,848,846,834,824,819,811,804,797,791,795,796,800,804,803,808,806,811,812,810,807,804,802,802,809,814,814,815,812,812,812,807,803,803,804,810,812,816,815,812,815,817,818,811,811,808,809,812,814,812,815,818,819,826,825,823,818,818,819,820,824,826,825,824,826,826,829,823,823,822,825,829,830,832,832,830,828,833,832,834,830,834,832,833,837,836,835,833,833,832,837,837,834,832,826,824,823,832,832,832,830,832,833,835,833,828,824,826,827,832,832,831,830,828,829,833,828,824,820,817,821,828,832,832,830,827,824,822,824,822,817,817,819,822,828,833,827,822,820,821,820,820,818,820,819,828,832,831,827,824,821,827,831,832,833,831,835,839,841,846,846,848,853,856,859,865,865,868,869,872,876,875,873,870,867,870,867,863,861,855,859,863,864,859,856,851,847,842,837,829,826,828,831,832,833,825,827,827,829,830,829,829,824,824,826,827,828,822,815,806,795,789,786,791,806,832,864,907,950,986,1014,1044,1076,1104,1123,1135,1139,1143,1142,1140,1132,1118,1087,1040,977,914,864,831,818,817,832,853,866,871,867,854,838,831,826,823,818,814,811,816,820,822,822,819,821,823,826,824,824,820,823,828,833,836,833,822,819,820,821,824,825,823,823,825,833,835,835,830,826,826,828,826,829,830,831,830,829,837,838,837,831,830,833,835,838,840,836,837,841,843,849,848,844,842,840,845,847,847,844,840,842,847,852,851,848,845,846,847,849,846,843,845,847,853,854,852,849,847,841,844,843,840,836,842,846,848,848,846,843,843,839,841,835,832,833,840,845,846,847,840,835,834,837,837,837,832,832,833,836,841,840,836,832,828,832,832,833,830,832,832,836,838,838,840,833,834,832,836,834,834,830,829,837,835,839,842,837,836,838,839,839,840,841,848,851,854,856,858,863,868,869,869,870,873,878,883,886,886,883,883,888,886,885,877,872,874,872,876,875,875,874,870,866,862,854,847,842,840,840,844,843,840,839,839,840,838,835,835,836,834,839,840,834,833,833,829,825,818,805,801,804,818,844,884,923,968,1009,1046,1082,1115,1141,1153,1157,1155,1145,1134,1115,1095,1059,1000,934,879,838,824,827,843,856,865,864,861,856,847,836,827,820,821,821,825,828,826,828,828,833,833,832,836,830,825,828,829,830,827,829,828,830,831,835,834,829,827,827,829,829,834,833,833,832,837,836,836,832,830,828,832,836,837,837,837,838,841,842,840,836,837,837,840,841,843,840,843,845,850,851,844,841,842,844,843,844,844,842,841,847,847,846,845,845,843,844,844,844,844,840,843,844,843,842,838,834,833,830,832,833,832,832,831,836,839,843,840,834,828,830,829,833,832,830,830,830,833,832,831,826,823,820,820,822,826,825,824,821,820,822,823,817,813,810,809,813,817,815,814,812,815,819,815,809,807,808,809,809,810,814,813,814,815,816,819,817,812,809,810,815,819,822,821,821,826,827,829,827,824,823,826,831,840,846,847,851,849,852,860,862,859,856,854,855,860,864,863,860,853,851,851,847,850,847,844,839,839,837,835,828,822,818,815,814,811,810,806,804,807,808,808,808,806,807,807,809,804,797,793,793,790,786,774,767,765,778,797,822,855,889,927,966,1000,1041,1074,1098,1118,1127,1135,1129,1120,1104,1091,1076,1053,1013,956,896,843,811,801,802,811,819,825,825,822,814,807,796,791,789,785,791,792,792,786,787,790,794,797,800,797,794,793,796,794,792,790,789,795,799,801,800,798,798,800,796,794,793,792,794,800,801,804,802,801,809,809,809,804,799,801,804,803,808,811,809,810,813,814,812,810,809,809,813,815,818,816,818,818,820,822,819,817,814,814,816,819,820,817,819,817,819,818,821,814,811,811,812,816,816,817,813,813,813,810,807,807,804,801,802,809,811,811,809,808,808,810,808,804,801,801,805,807,807,806,806,804,805,805,805,798,794,795,795,798,799,797,797,796,797,796,792,787,787,783,787,788,789,787,788,789,792,796,793,788,787,790,791,793,795,795,799,804,808,811,806,804,802,806,813,814,817,821,825,833,835,841,838,839,840,840,841,843,839,839,838,840,834,833,828,823,822,820,817,812,806,805,805,803,801,796,790,793,794,793,791,787,789,793,796,796,793,788,790,789,787,781,777,772,762,757,759,763,774,796,822,855,894,936,972,1006,1037,1070,1098,1120,1129,1130,1122,1110,1098,1086,1069,1041,994,931,877,832,805,793,795,801,814,820,821,810,800,788,785,786,784,783,777,778,780,780,781,779,784,786,789,791,788,786,783,782,782,784,786,786,783,788,791,795,793,793,789,790,790,791,789,790,792,796,798,803,799,797,791,790,792,795,794,796,798,801,805,810,807,805,802,801,803,806,805,805,805,804,808,812,814,814,809,809,809,812,810,810,809,808,813,813,815,813,808,809,806,804,803,803,805,809,811,807,807,805,801,803,805,806,800,801,801,803,807,809,807,803,799,800,798,798,796,794,795,800,803,803,801,800,793,795,794,793,794,788,788,790,792,795,792,789,785,784,783,785,781,779,780,780,785,793,791,789,786,785,787,789,787,789,789,794,798,801,802,802,801,804,806,806,806,810,819,827,834,834,838,837,842,844,842,842,837,834,836,838,844,839,837,832,829,828,827,822,819,815,815,811,809,804,799,799,800,798,800,794,794,791,797,797,795,796,791,792,793,795,792,788,783,776,772,767,765,761,761,770,795,828,863,904,938,976,1014,1049,1086,1110,1130,1141,1145,1142,1135,1117,1093,1051,1000,937,873,828,800,796,804,821,829,832,824,813,807,799,796,795,791,783,785,785,788,789,785,785,785,793,793,798,793,791,789,789,793,794,792,790,788,792,792,796,799,795,792,794,790,794,794,786,790,793,798,800,798,797,796,794,799,802,801,797,794,798,802,807,805,807,807,807,809,810,805,804,808,809,814,813,812,811,812,814,813,814,812,815,819,822,825,824,823,819,815,819,820,820,817,816,817,818,817,821,818,817,816,813,817,816,815,811,812,813,820,819,819,817,815,814,816,811,810,813,811,814,818,820,821,815,811,808,808,805,807,810,805,805,811,813,812,807,803,803,803,804,803,803,800,802,804,808,805,803,803,807
