856,858,858,854,850,848,852,850,853,855,855,857,855,854,853,852,852,853,852,853,855,856,858,860,858,856,856,853,848,850,851,852,855,856,856,859,860,861,859,856,855,855,855,853,856,858,857,859,859,860,858,859,856,854,853,854,854,861,862,861,862,860,855,854,850,852,852,852,857,854,858,860,857,862,859,858,856,854,853,855,857,857,856,855,859,859,860,859,857,858,858,859,859,858,863,863,861,861,860,858,855,856,856,861,865,867,871,874,877,878,877,880,880,874,876,876,882,889,894,897,896,896,895,893,889,886,884,884,884,885,883,882,878,875,869,867,863,859,859,860,860,860,861,860,860,860,856,852,850,843,848,850,852,854,856,859,854,855,855,856,852,853,852,853,855,855,860,860,863,872,887,902,923,949,979,1009,1030,1036,1026,994,945,885,830,777,734,706,701,716,739,761,784,803,817,830,841,851,856,861,865,865,867,866,869,870,868,870,871,873,870,872,872,872,876,876,881,883,882,884,882,881,879,880,880,882,884,886,887,890,890,894,893,892,890,890,887,888,891,893,896,899,898,899,900,899,901,897,899,901,903,908,912,915,917,918,918,917,918,920,923,925,931,933,936,942,946,947,951,952,954,957,960,961,967,970,975,984,988,988,989,992,993,991,994,995,999,1002,1005,1004,1004,1003,1001,998,998,995,993,990,982,983,979,973,965,962,954,948,938,930,926,915,914,910,906,906,899,898,895,887,885,883,878,876,875,875,877,875,874,875,872,869,868,867,865,863,869,872,868,870,871,870,868,868,865,864,865,865,867,869,872,874,873,873,874,870,869,867,863,868,869,870,871,871,874,872,869,869,866,866,866,869,865,869,868,870,870,871,868,867,863,860,861,859,860,860,862,866,867,863,865,861,858,857,857,856,858,859,858,862,859,859,856,855,853,854,855,853,854,855,858,862,858,855,857,852,852,853,850,850,850,853,854,856,856,858,857,853,848,850,847,849,852,854,855,858,856,856,854,854,855,853,852,852,853,856,856,853,853,855,853,852,851,850,847,850,852,853,855,855,856,854,852,853,849,850,849,849,851,853,854,856,853,854,852,851,851,848,848,847,845,847,849,849,851,852,852,851,849,847,846,846,849,848,853,853,852,849,851,849,843,845,844,845,847,847,847,850,849,848,847,847,848,846,838,840,838,843,845,848,850,849,848,846,844,845,842,841,843,846,849,850,849,849,849,845,843,845,844,844,847,846,851,851,854,850,850,847,845,846,846,847,851,857,861,864,863,863,866,868,869,870,869,875,877,880,880,879,879,883,880,880,874,869,866,868,869,869,868,862,860,855,851,843,842,839,841,839,842,844,845,844,844,842,840,838,835,833,832,832,834,837,838,839,839,840,840,838,839,838,836,839,841,845,848,854,862,876,892,913,939,969,989,997,985,956,904,849,789,737,700,675,669,679,696,721,748,768,784,803,817,831,840,846,847,848,844,847,847,849,852,855,858,858,855,857,854,855,853,853,858,860,865,867,865,867,861,860,860,857,854,857,857,863,865,871,872,871,871,872,867,866,869,870,869,873,876,878,879,880,880,879,878,878,880,881,886,890,895,899,900,903,902,901,904,906,906,909,914,916,922,929,931,932,937,938,942,944,948,952,955,958,966,970,971,975,973,975,978,982,984,985,989,990,991,993,992,989,989,986,980,979,974,969,967,962,960,953,951,941,935,927,921,917,907,906,900,896,890,888,886,880,877,872,870,868,860,860,860,860,862,860,860,861,858,855,852,849,849,852,853,856,857,860,860,859,856,855,851,852,849,849,849,851,855,857,852,854,854,855,853,852,853,852,850,855,855,857,857,853,852,850,848,847,844,847,848,850,851,854,853,850,851,849,847,847,845,843,843,842,844,846,844,845,841,840,841,840,836,837,839,840,844,843,840,842,840,837,836,834,833,829,832,834,835,838,837,837,836,834,834,833,833,833,833,835,836,837,840,837,834,833,832,832,831,829,832,836,837,839,841,837,836,833,831,830,825,827,829,829,834,838,837,838,837,837,830,835,830,832,829,834,831,835,836,833,837,836,835,834,834,832,837,835,837,839,840,835,834,833,831,831,830,831,831,832,837,838,839,839,837,837,834,833,830,830,831,831,835,840,836,837,836,834,836,833,834,833,834,833,836,838,839,837,837,835,833,830,828,828,829,833,837,842,842,842,844,840,838,837,833,837,837,839,840,841,842,842,839,837,839,837,837,838,841,841,844,846,848,848,844,845,846,849,850,852,859,861,864,866,866,866,868,871,869,869,871,870,872,875,875,871,868,869,869,866,865,862,857,854,853,849,848,847,843,844,842,841,838,836,836,833,835,836,840,840,840,843,840,837,837,836,837,834,833,837,838,845,848,847,847,847,847,846,848,853,860,882,906,935,961,992,1012,1025,1018,991,945,887,831,778,731,697,683,687,706,729,747,767,783,799,814,829,842,852,854,858,859,856,850,854,852,856,856,860,859,861,865,866,865,866,866,869,867,866,870,869,874,875,877,876,875,872,867,869,868,873,871,877,877,882,882,886,885,885,883,882,882,882,886,891,892,896,899,899,899,897,896,899,899,903,907,912,914,918,918,922,926,922,926,927,930,933,939,944,948,953,958,959,965,964,966,963,964,970,975,980,984,987,991,992,991,992,992,991,991,991,991,988,990,988,985,979,976,972,962,957,948,944,940,934,927,925,918,916,909,901,895,890,883,879,879,873,875,876,873,870,868,865,863,861,860,860,858,862,863,865,864,864,862,861,862,859,857,855,859,860,860,864,865,865,863,860,861,857,858,858,859,864,863,867,863,862,860,858,860,858,858,855,857,858,859,861,863,864,859,860,857,857,854,855,856,859,860,857,859,859,857,852,853,848,849,847,849,853,855,854,854,852,854,849,849,844,844,842,845,844,847,852,852,848,845,847,845,841,840,842,843,847,848,849,848,847,845,844,842,842,840,841,842,844,845,847,847,846,845,845,841,842,841,841,843,843,846,846,849,846,845,843,840,838,837,839,841,841,840,842,845,846,844,844,845,845,843,841,843,843,845,844,846,846,844,842,844,842,839,840,839,845,845,848,849,849,848,845,845,839,838,838,837,841,844,843,846,846,843,841,839,840,839,840,843,846,845,847,847,843,846,844,844,841,841,845,845,844,847,849,851,850,850,848,847,842,842,840,844,844,844,849,851,850,850,847,848,844,842,843,845,844,848,851,851,850,848,845,848,847,850,850,858,859,866,866,871,872,871,867,870,865,869,871,878,883,883,888,890,887,887,882,877,873,873,865,869,870,869,866,865,858,858,853,849,848,847,846,848,846,849,849,850,846,841,839,837,835,832,836,836,839,843,845,845,845,843,844,842,841,841,841,843,845,853,864,882,901,922,952,981,1005,1013,1003,973,927,870,813,758,712,685,681,693,713,741,764,784,803,815,830,838,847,851,853,846,840,845,843,843,846,854,855,860,860,856,855,853,853,856,855,857,858,861,863,866,863,862,865,863,864,862,863,866,866,864,869,871,870,869,868,869,868,867,870,870,875,875,877,878,884,885,884,885,883,879,883,885,889,893,898,903,906,907,909,910,913,913,917,921,926,933,937,940,941,944,947,951,953,958,956,960,963,968,972,973,975,975,978,979,979,975,975,976,978,976,977,976,972,966,962,960,953,946,943,935,931,926,919,912,906,901,895,890,884,876,874,872,872,870,868,866,864,861,858,856,850,846,844,840,846,846,850,849,850,848,845,845,840,839,838,841,843,843,843,847,847,845,841,842,839,839,840,840,843,845,849,850,848,846,841,840,841,840,840,838,842,844,847,847,846,846,842,839,838,838,838,835,836,836,836,838,842,840,838,834,833,833,834,834,836,832,835,835,833,833,831,826,826,821,824,824,829,828,833,833,833,832,830,829,826,824,821,824,824,826,826,827,828,826,828,826,824,824,821,822,825,826,827,827,829,829,826,825,821,822,819,824,826,826,831,830,831,830,826,821,821,818,821,819,822,822,826,829,828,828,827,827,823,822,823,825,825,826,827,830,828,827,825,821,819,818,821,819,825,827,829,830,832,830,826,824,820,820,819,819,821,824,823,828,826,825,825,825,825,822,821,824,826,828,830,829,830,829,827,826,824,821,821,824,827,826,829,831,832,831,828,826,824,819,819,821,823,825,827,829,825,827,827,829,826,825,824,825,826,827,828,829,826,824,823,823,827,825,826,826,829,833,836,840,840,844,843,846,845,845,845,845,845,851,854,856,862,860,860,861,861,857,858,858,854,853,857,855,855,849,845,841,834,829,825,824,825,826,829,830,830,827,827,824,824,820,817,819,817,819,820,816,820,818,819,820,820,819,817,818,820,824,822,826,829,831,830,829,832,837,848,865,887,913,945,976,1000,1009,993,956,902,839,776,719,671,644,641,655,682,711,735,754,768,783,796,811,823,828,835,836,840,838,835,836,838,840,839,841,845,845,849,851,853,851,851,851,847,845,845,843,847,852,855,859,859,862,859,858,858,858,854,856,859,859,863,864,865,867,868,867,868,867,867,865,870,877,876,879,881,883,882,883,884,883,886,891,894,900,904,906,907,910,913,914,915,917,921,925,929,935,942,945,950,954,955,957,956,958,963,965,968,972,974,977,978,976,976,972,967,967,967,965,967,964,963,958,956,948,941,934,927,922,913,904,904,900,897,893,887,884,876,872,865,862,857,858,859,859,858,857,858,856,851,845,843,845,843,845,848,853,853,856,856,854,854,851,849,847,848,849,852,851,855,857,857,859,855,851,850,851,848,850,847,850,850,854,854,854,853,853,853,850,850,847,853,853,855,855,853,854,851,848,846,845,841,843,846,847,848,849,849,847,847,846,841,839,837,840,837,841,839,839,843,843,841,839,841,836,835,833,834,835,839,840,840,838,834,832,831,833,834,833,836,837,837,839,838,840,839,837,835,831,831,829,834,835,837,838,838,839,835,829,829,831,834,835,836,837,836,840,840,834,837,833,832,831,830,831,834,836,837,839,837,838,838,832,830,830,829,834,834,833,836,839,838,838,837,837,836,834,833,834,834,836,837,838,840,839,839,836,834,834,832,836,833,836,837,837,842,841,840,837,835,838,834,832,833,835,837,840,842,840,840,840,837,839,840,835,836,839,838,839,842,839,841,839,840,838,838,841,843,845,844,846,846,847,843,841,840,838,838,839,840,841,846,849,852,854,856,861,860,857,860,861,862,865,869,872,878,880,880,878,877,874,869,870,874,873,872,873,870,868,866,859,855,850,844,844,845,847,846,848,849,849,845,844,841,841,834,833,835,834,836,839,837,836,836,836,835,835,834,836,836,839,843,846,845,843,845,845,848,852,868,885,911,938,965,995,1019,1027,1014,988,947,894,838,783,739,704,690,691,708,734,758,775,792,808,821,831,841,846,852,855,850,851,854,854,853,851,852,857,858,857,864,865,864,866,865,864,865,861,859,863,863,867,870,875,869,874,873,871,872,868,869,869,872,871,875,879,877,876,878,875,876,882,878,881,882,884,890,895,894,895,898,899,901,901,901,906,909,915,918,927,930,928,932,933,939,937,944,946,952,959,964,970,974,975,977,978,979,983,981,982,986,989,990,992,991,995,989,987,980,979,974,971,966,963,956,952,941,937,925,922,910,905,900,895,893,887,885,883,881,878,873,869,865,861,857,852,854,852,854,856,855,856,852,852,848,847,846,848,846,851,852,855,853,852,849,845,846,847,849,849,851,853,857,856,856,855,850,848,844,843,847,846,849,850,854,852,852,852,847,847,844,844,842,840,845,844,844,846,842,844,846,845,838,840,840,836,839,840,841,841,842,837,838,836,834,832,832,830,832,833,835,839,837,835,833,829,826,826,829,827,828,828,830,832,835,834,833,836,833,831,826,826,828,831,830,834,833,828,825,825,823,824,823,824,827,828,830,832,833,833,827,824,826,826,824,824,826,828,829,831,829,832,827,825,822,823,823,825,826,829,827,832,831,830,828,830,829,827,824,823,824,827,828,832,831,832,832,828,825,823,822,822,823,826,826,832,832,831,830,827,829,825,824,823,825,826,827,833,833,831,828,829,827,830,829,829,829,833,834,838,833,834,832,830,830,830,827,827,828,830,829,833,832,831,831,829,831,830,825,824,828,828,827,829,830,834,832,832,834,835,837,836,842,845,847,853,847,850,849,849,853,853,857,863,865,868,871,871,871,866,861,856,852,850,850,847,846,844,842,839,837,833,834,829,830,829,828,823,826,827,824,824,825,825,820,821,820,816,816,817,819,823,822,829,828,828,827,824,824,821,822,823,826,830,835,845,854,869,882,907,933,958,980,994,990,965,922,868,812,755,706,666,642,642,657,684,711,736,755,774,789,803,817,825,832,830,828,827,829,834,838,841,842,845,844,846,844,843,845,844,847,849,850,852,851,852,851,852,853,848,848,850,848,854,857,860,861,863,860,860,858,857,856,859,863,864,867,872,871,873,874,874,871,871,871,874,877,881,885,889,891,893,894,898,900,901,903,903,913,916,918,926,932,934,934,937,940,943,945,949,951,960,965,972,975,973,974,974,974,973,973,971,974,975,973,974,972,970,970,965,959,951,945,942,938,933,925,922,916,912,902,895,888,884,879,874,870,867,869,864,864,857,855,854,847,848,845,845,845,847,846,848,847,851,847,843,847,844,841,841,843,845,847,849,850,849,848,848,845,845,844,844,846,849,848,850,849,849,848,845,843,844,841,843,843,850,851,851,851,848,848,847,845,843,841,841,841,841,843,845,841,844,843,840,837,835,832,831,832,835,839,837,839,837,837,839,835,833,832,831,832,833,837,838,840,837,836,834,831,827,830,829,837,838,840,843,841,840,836,835,834,832,831,831,831,834,836,836,839,838,837,834,832,831,831,833,834,833,835,839,837,837,836,834,833,830,831,832,834,837,838,841,836,839,837,837,835,834,830,830,834,834,836,840,841,838,839,838,838,837,835,835,838,839,839,838,840,841,836,835,837,835,835,837,839,841,840,844,841,842,843,840,841,839,835,838,838,836,839,844,840,839,841,843,843,840,842,838,840,844,847,847,846,847,845,842,840,840,841,841,843,844,845,849,851,849,850,845,846,845,844,843,846,851,853,861,865,864,866,864,864,862,864,869,872,873,879,883,884,883,883,878,873,868,865,865,867,869,868,867,862,858,855,848,846,846,844,844,844,847,847,849,847,848,846,839,839,839,836,835,835,837,841,843,846,846,845,845,844,844,841,843,846,849,851,857,872,887,909,933,962,987,1012,1023,1020,995,957,908,855,801,753,714,693,694,709,735,759,782,799,815,830,840,850,854,855,854,851,849,850,853,853,855,855,859,860,858,856,858,862,864,866,870,870,871,874,874,872,872,870,869,869,870,871,875,877,880,882,880,881,880,880,880,877,882,884,885,888,890,892,891,892,893,894,894,896,897,902,904,905,906,909,910,913,914,917,919,921,923,925,935,937,943,947,948,953,951,956,958,957,961,967,972,976,981,984,987,988,986,990,988,992,991,992,994,994,989,990,990,987,981,978,970,967,959,955,952,949,946,938,932,928,917,909,903,895,892,889,890,884,883,883,879,881,874,871,871,869,866,866,868,867,866,867,866,865,863,865,859,859,863,864,863,867,866,867,862,864,856,859,858,860,857,861,863,865,868,872,869,869,868,868,863,862,864,863,863,865,868,866,868,865,863,865,863,860,858,859,857,863,859,861,862,860,858,858,856,857,856,858,858,858,861,859,857,851,848,849,850,846,845,850,849,853,853,856,858,857,854,851,854,850,850,851,850,846,854,854,854,855,854,856,851,850,850,852,854,850,856,857,857,854,853,851,850,849,848,849,854,854,853,859,857,857,855,851,852,845,849,848,848,850,852,856,855,855,852,851,848,851,850,852,853,855,856,855,854,856,852,852,850,851,849,851,852,853,852,851,852,850,851,853,852,848,851,851,851,853,855,855,855,858,856,853,855,850,851,854,855,857,857,858,856,854,851,851,852,851,853,853,855,856,855,858,856,854,853,854,852,852,851,852,854,855,859,861,859,859,857,854,854,850,852,852,853,854,856,856,856,855,854,853,850,851,852,853,855,855,859,865,865,869,867,869,868,865,869,871,870,874,880,884,887,887,884,885,881,879,879,878,876,875
