1004,1009,1010,1007,1003,1002,997,1000,1020,1048,1073,1093,1109,1127,1151,1177,1200,1227,1248,1258,1258,1243,1221,1187,1135,1075,1023,989,972,964,967,977,985,991,994,992,987,989,987,981,978,978,978,983,980,980,981,980,985,987,983,979,975,972,975,980,990,992,989,986,992,997,997,997,998,1001,1005,1007,1007,1003,1004,998,1000,1003,1003,999,1000,1000,1003,1005,1003,1001,999,1001,1004,1007,1006,1008,1010,1008,1011,1011,1010,1010,1011,1009,1014,1015,1015,1015,1014,1016,1016,1017,1017,1017,1019,1021,1021,1024,1026,1025,1025,1034,1042,1044,1041,1039,1034,1036,1038,1041,1040,1038,1036,1031,1032,1033,1031,1027,1022,1019,1021,1027,1027,1024,1021,1019,1019,1019,1020,1017,1013,1011,1012,1016,1016,1014,1011,1010,1012,1016,1010,1008,1005,1001,1003,1005,1002,1002,1001,1000,1002,1004,1002,1001,998,997,994,992,992,996,993,991,991,990,991,995,995,995,996,997,997,999,996,998,1001,1003,1003,1005,1003,1002,1005,1004,1007,1007,1006,1010,1012,1014,1012,1006,1001,999,1002,1004,1003,1002,1003,1003,1004,1006,1006,1002,1000,1002,1005,1004,1003,1005,1009,1009,1008,1005,1006,1004,1002,1001,1001,1000,999,1000,1000,999,1001,1004,1003,1004,1002,1002,1005,1007,1006,999,994,997,1005,1011,1021,1032,1046,1069,1096,1120,1141,1165,1187,1205,1214,1215,1199,1172,1135,1082,1020,979,957,949,950,958,969,976,977,978,976,977,979,979,979,973,974,974,974,970,966,976,989,993,991,987,982,979,982,983,983,988,987,988,990,992,994,988,978,973,973,983,988,995,992,987,984,982,980,983,989,992,991,993,993,1000,997,999,1000,1000,1000,1004,1001,1002,1004,1008,1008,1010,1011,1014,1015,1014,1014,1018,1018,1021,1021,1020,1019,1022,1024,1029,1030,1030,1032,1031,1031,1028,1023,1020,1018,1017,1021,1017,1017,1016,1014,1013,1005,1002,1003,1006,1010,1014,1013,1007,1001,1001,1005,1006,1006,1008,1006,1006,1002,1000,996,994,999,1002,1002,1000,999,1003,1007,1000,999,1000,1003,1004,1003,999,997,994,994,994,992,988,991,987,987,989,995,997,997,994,990,990,991,993,997,999,996,993,993,993,1001,1006,1004,1003,1001,1000,1002,1005,1002,1002,1000,1001,1002,1004,1004,1007,1007,1009,1008,1011,1013,1013,1009,1007,1004,1006,1008,1006,1005,1002,1001,1005,1010,1014,1010,1008,1009,1009,1005,1001,1001,1000,1003,1004,1001,1000,998,995,995,995,998,1001,1002,1001,999,1003,1004,1002,1000,995,994,994,993,996,1011,1026,1040,1051,1066,1085,1107,1126,1149,1175,1198,1221,1238,1246,1240,1220,1185,1123,1047,987,959,945,936,936,937,940,954,970,981,986,988,986,987,988,987,983,981,981,985,988,992,992,990,991,990,990,991,992,990,991,991,991,990,989,990,991,990,989,990,986,985,983,984,988,989,991,989,993,991,987,990,993,997,1001,1003,1006,1008,1008,1005,1007,1008,1011,1010,1008,1005,1003,1006,1010,1013,1014,1011,1012,1014,1014,1014,1011,1007,1010,1014,1017,1019,1018,1019,1020,1022,1027,1028,1029,1030,1031,1033,1032,1031,1031,1030,1027,1024,1024,1027,1029,1027,1027,1024,1027,1026,1022,1018,1017,1016,1017,1016,1018,1014,1011,1015,1014,1011,1009,1006,1006,1005,1007,1004,1000,1001,1000,1006,1009,1013,1010,1009,1004,1001,1002,1002,1005,1003,1004,1002,1001,1000,997,996,993,994,995,995,999,1006,1011,1016,1017,1007,999,992,993,999,1004,1005,1005,1000,994,1000,1005,1005,1005,1003,1001,1006,1011,1014,1011,1007,1009,1009,1010,1008,1007,1004,1002,1004,1010,1013,1011,1007,1004,1006,1006,1004,1006,1008,1007,1003,1008,1008,1008,1008,1009,1010,1009,1010,1010,1008,1004,1000,1005,1006,1011,1007,1006,1006,1008,1007,1004,999,1000,1004,1008,1009,1004,1000,995,1000,1005,1005,1004,1006,1011,1016,1014,1008,1002,1000,1000,1006,1015,1028,1039,1050,1069,1083,1103,1121,1146,1175,1198,1217,1238,1252,1257,1248,1226,1196,1154,1094,1039,998,978,967,965,968,977,985,989,992,987,980,978,979,979,980,985,986,984,982,982,981,981,984,986,990,988,990,991,993,994,992,990,990,993,992,991,990,985,983,982,982,988,994,999,999,999,1002,1002,1000,997,999,1002,1001,1003,1001,996,996,995,998,999,1000,1004,1006,1003,1001,999,1004,1009,1015,1016,1015,1016,1020,1017,1019,1022,1022,1024,1025,1027,1028,1030,1029,1029,1030,1032,1035,1036,1038,1037,1037,1038,1033,1032,1030,1035,1039,1039,1041,1039,1034,1031,1030,1031,1038,1041,1043,1040,1039,1036,1037,1033,1030,1027,1022,1023,1020,1023,1025,1025,1025,1022,1023,1024,1024,1023,1019,1017,1015,1016,1017,1017,1014,1013,1014,1018,1018,1018,1015,1012,1012,1015,1014,1011,1011,1011,1012,1009,1007,1005,1004,1003,1004,1004,1003,1001,994,996,1001,1008,1014,1012,1014,1013,1013,1013,1013,1010,1009,1011,1015,1014,1017,1016,1016,1018,1020,1023,1020,1020,1018,1023,1032,1038,1031,1026,1019,1017,1017,1019,1016,1014,1010,1010,1011,1015,1013,1010,1007,1009,1013,1018,1018,1017,1017,1019,1022,1021,1020,1013,1008,1008,1006,1009,1012,1014,1011,1008,1007,1006,1005,1008,1008,1010,1010,1014,1015,1013,1011,1012,1011,1015,1012,1009,1003,999,1002,1013,1033,1051,1070,1091,1110,1131,1150,1170,1194,1221,1237,1236,1219,1197,1174,1138,1088,1038,1000,978,966,968,973,986,992,990,989,984,984,983,978,974,977,976,977,977,980,983,984,986,988,992,993,993,990,989,993,994,997,994,993,989,988,991,992,989,987,989,990,989,991,993,991,991,993,993,998,1000,997,996,1001,1003,1002,1002,998,999,1000,1002,1002,1005,1007,1008,1009,1011,1012,1013,1008,1010,1010,1012,1014,1018,1020,1021,1024,1027,1028,1027,1027,1028,1028,1032,1034,1032,1032,1030,1032,1035,1034,1030,1030,1031,1036,1037,1036,1032,1031,1028,1028,1029,1030,1029,1024,1023,1024,1025,1024,1021,1017,1013,1010,1012,1011,1009,1008,1007,1008,1008,1007,1008,1006,1006,1005,1005,1004,1002,999,1001,1003,1004,1002,1001,997,995,1001,1005,1006,1005,1003,998,996,995,992,993,990,989,987,988,989,987,986,985,987,986,986,987,986,988,991,996,992,988,982,982,987,990,992,989,986,987,988,987,990,988,988,987,989,992,992,993,993,992,992,994,997,999,1000,999,1001,1005,1004,1001,1002,1000,1000,1000,1000,994,990,991,994,997,996,996,994,993,994,992,990,990,989,990,995,996,995,994,995,999,999,998,993,993,989,995,994,994,992,993,992,991,991,992,994,993,992,993,995,996,996,995,990,994,997,995,986,981,984,990,1005,1018,1032,1048,1065,1083,1102,1118,1134,1157,1174,1192,1215,1223,1217,1197,1169,1136,1079,1017,970,944,931,931,942,954,961,959,956,959,967,971,970,968,969,973,977,982,980,973,971,976,986,992,990,984,983,993,1002,1004,998,995,988,977,973,974,968,960,955,960,970,979,989,1003,1010,997,980,970,974,988,993,994,992,992,992,986,979,976,981,986,991,1006,1023,1025,1015,1004,1006,1011,1012,1005,996,993,994,999,1003,1008,1008,1002,998,1009,1028,1040,1035,1015,1002,997,1004,1016,1024,1027,1022,1016,1015,1021,1034,1044,1043,1027,1005,994,999,1012,1013,1010,1011,1011,1017,1024,1025,1021,1020,1022,1020,1012,1001,1002,1009,1012,1011,1013,1013,1014,1009,1007,1010,1010,1010,1008,1003,1000,1002,1005,1003,993,988,992,998,1005,1011,1019,1016,1006,989,981,985,1000,1010,1009,1008,1009,1007,1007,1007,1009,1007,998,987,980,985,996,1002,1001,998,1002,1000,995,998,1005,1013,1016,1012,1014,1017,1024,1024,1023,1022,1029,1042,1043,1032,1014,1009,1018,1028,1025,1015,1007,1004,1006,1007,1004,1007,1008,1008,997,990,994,1005,1011,1009,1008,1010,1011,1008,1007,1008,1011,1021,1030,1030,1022,1004,993,992,997,1001,1006,1009,1012,1019,1027,1032,1031,1027,1019,1014,1006,999,994,988,988,994,1002,1007,1015,1016,1012,1008,1000,999,1008,1024,1043,1061,1081,1098,1116,1130,1147,1173,1200,1222,1245,1268,1283,1284,1271,1247,1206,1138,1056,993,958,943,940,948,961,978,993,995,992,987,986,980,984,987,993,992,994,995,1006,1028,1036,1016,975,956,961,981,992,988,981,982,993,1003,1008,1006,1005,1009,1013,1019,1022,1011,992,980,984,998,1003,990,974,976,993,1009,1009,1002,989,985,985,988,1005,1022,1032,1036,1033,1020,1008,1000,1008,1023,1026,1012,1000,1007,1020,1034,1037,1034,1025,1019,1026,1036,1038,1035,1032,1030,1027,1036,1046,1049,1046,1042,1040,1035,1028,1029,1044,1066,1081,1075,1051,1030,1030,1032,1029,1018,1013,1011,1012,1016,1021,1024,1025,1029,1040,1053,1057,1046,1031,1026,1027,1025,1022,1023,1025,1023,1022,1035,1045,1039,1035,1040,1047,1039,999,957,938,950,986,1012,1021,1023,1018,1012,1004,993,981,976,986,991,1001,1013,1030,1042,1043,1022,992,967,956,960,973,989,1000,1004,997,1004,1010,1015,1009,999,984,975,982,999,1015,1023,1026,1025,1013,997,983,983,994,1013,1031,1040,1035,1025,1015,1005,1001,1005,1002,988,983,990,999,998,992,991,999,1020,1037,1045,1030,1000,972,956,961,972,990,1007,1019,1037,1055,1053,1021,977,951,950,962,970,975,988,1002,1018,1019,1011,995,983,977,981,990,992,988,988,993,1002,1012,1020,1030,1040,1052,1064,1065,1057,1050,1066,1103,1148,1185,1211,1227,1235,1233,1223,1206,1188,1164,1124,1083,1062,1042,985,909,863,868,914,955,969,966,964,963,969,974,975,970,964,961,970,974,970,963,964,976,994,1001,990,974,962,969,989,999,990,972,957,960,973,981,970,954,945,948,957,963,959,952,946,954,968,977,977,978,978,979,979,981,979,980,977,985,989,987,984,985,991,999,1003,1007,1008,1005,1005,1005,1003,992,991,998,1007,1002,995,994,998,1007,1016,1014,998,985,985,997,1009,1015,1018,1024,1027,1025,1016,1011,1014,1020,1026,1025,1022,1022,1027,1035,1041,1052,1070,1076,1046,992,959,964,996,1017,1020,1011,997,987,990,1000,1005,999,988,987,994,1004,1004,1003,1003,1009,1012,1009,1012,1016,1012,1003,990,981,980,978,985,997,1006,1008,994,975,970,980,988,989,987,992,999,994,976,965,972,981,989,990,995,999,1000,996,990,980,979,986,995,1001,1006,1005,1001,992,988,987,995,1002,1009,1015,1015,1008,994,985,992,997,993,989,986,992,998,999,997,999,1000,996,993,994,1005,1015,1016,1002,988,984,992,1002,1008,1005,997,982,974,975,981,981,979,983,994,1003,999,993,992,992,999,1005,1009,1009,1000,990,989,998,1006,1009,1003,1005,1016,1042,1068,1094,1114,1135,1161,1190,1214,1228,1228,1211,1194,1171,1134,1078,1028,996,974,956,948,958,973,992,1011,1025,1028,1011,985,962,955,949,948,954,956,952,946,950,960,971,973,976,977,974,972,970,971,976,979,983,983,984,988,996,1003,1008,996,970,945,941,960,983,1004,1024,1028,1003,963,930,930,953,974,982,979,980,986,989,990,991,993,996,1001,1010,1019,1032,1035,1028,1007,992,988,994,998,1002,1011,1026,1043,1050,1041,1010,985,978,987,1003,1019,1027,1028,1028,1027,1026,1027,1029,1029,1027,1025,1023,1032,1045,1058,1060,1052,1039,1029,1017,999,979,975,983,993,1006,1013,1024,1041,1051,1057,1050,1028,987,952,942,956,982,1001,1012,1023,1028,1015,985,958,957,975,988,989,989,994,995,994,991,992,991,991,988,985,984,987,987,989,987,985,985,990,994,999,1001,1000,1000,1007,1018,1033,1042,1050,1037,1019,1011,1020,1025,1020,1010,993,965,935,920,936,979,1016,1024,1009,984,971,973,989,999,1002,1003,1014,1035,1075,1109,1102,1039,962,911,904,922,938,952,974,1002,1018,1015,997,981,972,969,976,988,1009,1029,1041,1034,1007,977,947,937,949,972,990,992,988,988,983,975,967,971,989,1001,1007,1011,1020,1032,1050,1049,1016,970,932,919,937,969,1006,1048,1086,1104,1101,1106,1143,1196,1225,1221,1209,1206,1208,1197,1162,1091,1019,965,936,936,955,977,992,992,977,964,970,973,978,987,996,1000,987,966,946,947,966,991,1011,1021,1024,1045,1069,1046,965,872,827,852,906,942,950,952,953,958,961,966,963,965,962,957,957,961,964,965,965,971,972,972,974,977,981,988,994,993,984,968,954,960,969,983,991,992,994,998,1007,1021,1036,1041,1026,992,965,971,1002,1021,1018,1003,991,989,992,996,998,1001,1006,1012,1017,1017,1018,1021,1021,1017,1013,1011,1012,1023,1026,1026,1034,1043,1050,1043,1017,988,986,1004,1033,1048,1032,1009,999,1000,999,982,961,960,969,977,984,990,989,990,989,989,994,992,991,989,988,992,995,993,990,990,993,998,1000,1007,1010,1012,1004,988,975,965,964,972,992,1004,1016,1039,1056,1046,999,941,908,926,961,983,990,991,993,995,995,986,982,979,985,989,988,989,994,998,1001,998,997,1000,1004,1008,1009,1008,1005,1001,1000,1000,998,997,997,1003,1007,1009,1008,1004,1004,1009,1016,1024,1030,1027,1010,988,974,978,999,1014,1013,1006,1007,1011,1012,1006,998,991,993,1005,1020,1022,1011,994,979,979,985,989,990,995,1008,1017,1018,1022,1031,1037,1023,1003,988,979,975,976,987,1012,1038,1060,1080,1098,1121,1144,1156,1159,1164,1188,1219,1238,1228,1209,1187,1154,1105,1043,1000,981,973,971,982,1002,1021,1022,1011,990,972,961,962,971,974,971,971,981,995,1001,993,976,961,958,964,972,977,980,982,986,988,989,990,986,982,982,981,980,980,981,986,991,995,994,989,988,984,983,988,989,991,993,994,997,1004,1010,1009,1003,993,992,1004,1018,1013,1005,995,994,998,1003,1008,1013,1017,1024,1031,1041,1044,1038,1026,1020,1030,1040,1039,1028,1017,1009,1009,1012,1015,1028,1044,1051,1048,1044,1051,1064,1074,1074,1059,1029,1006,995,999,1010,1014,1002,993,1001,1013,1021,1025,1022,1009,999,995,1003,1010,1013,1010,1010,1012,1016,1016,1013,1009,1007,1007,1006,1008,1016,1024,1038,1062,1068,1031,967,930,939,963,978,986,990,991,994,992,993,992,992,990,989,992,992,997,995,993,992,992,994,996,998,996,999,1000,1003,1006,1005,1006,1008,1010,1011,1013,1013,1010,1010,1015,1020,1017,1011,1005,1002,999,1004,1002,1003,1005,1006,1011,1011,1008,1002,999,1000,1003,1007,1010,1010,1009,1013,1017,1016,1023,1028,1024,1012,994,976,975,987,999,1005,1006,1001,995,997,1000,1000,1002,1002,1003,1003,1001,998,997,998,1010,1022,1036,1064,1101,1133,1140,1126,1119,1137,1170,1197,1199,1178,1157,1137,1105,1058,1006,969,941,935,945,960,973,981,983,984,990,991,983,963,948,947,956,971,978,983,983,985,982,979,973,974,979,985,983,978,977,976,976,971,974,984,990,988,977,968,970,980,984,987,982,980,983,988,989,991,986,982,982,987,991,993,995,995,999,1005,1012,1010,1010,1004,997,993,995,1000,1002,1006,1013,1018,1019,1018,1014,1012,1016,1021,1025,1025,1024,1022,1022,1025,1027,1025,1023,1021,1021,1023,1024,1025,1026,1026,1024,1022,1018,1012,1012,1013,1017,1015,1010,1007,1003,1000,1000,1010,1016,1017,1009,995,990,990,989,988,985,988,997,1001,1001,996,993,991,992,990,992,993,994,990,992,989,989,986,983,980,983,985,987,989,988,983,982,986,989,989,986,982,985,982,984,987,986,987,986,989,989,990,992,986,978,972,978,977,973,976,986,993,991,988,984,984,989,993,992,992,994,993,995,994,992,992,986,985,984,988,990,991,992,991,991,989,989,991,993,990,991,995,996,996,990,985,987,985,984,982,982,987,988,994,995,994,987,976,973,982,987,990,985,981,983,984,985,986,985,988,993,1003,1014,1031,1055,1075,1098,1123,1145,1164,1182,1195,1193,1173,1143,1104,1048,991,952,932,922,919,926,934,946,954,960,962,962,961,960,959,957,957,956,956,964,970,975,977,975,974,975,976,973,970,967,967,971,971,969,968,970,968,969,971,973,973,974,977,980,983,984,986,981,983,982,984,988,990,991,988,989,990,991,993,995,996,997,998,996,995,997,995,996,1000,996,1003,999,996,999,1001,1005,1009,1009,1009,1014,1020,1021,1019,1013,1010,1014,1015,1016,1011,1007,1008,1018,1026,1028,1022,1016,1016,1015,1011,1004,999,998,999,1003,1007,1004,997,991,994,998,1000,999,996,993,992,994,996,994,989,986,988,990,988,989,992,989,988,988,986,985,984,983,984,983,986,986,985,987,986,986,985,984,980,981,985,987,990,988,984,984,986,988,994,994,995,994,994,996,1001,999,999,1000,1001,1004,1010,1010,1009,1004,995,989,989,993,994,988,977,973,980,991,993,990,986,985,986,992,992,989,991,995,1001,1003,996,990,991,991,993,992,989,985,986,985,984,987,989,992,991,992,995,990,989,988,987,991,994,994,996,991,984,981,988,1001,1020,1039,1062,1088,1111,1130,1150,1172,1197,1225,1246,1250,1234,1206,1177,1137,1076,1015,979,959,949,953,954,960,967,972,975,977,978,978,976,971,963,962,963,967,966,963,962,965,972,973,975,974,972,973,975,975,974,975,976,979,980,979,978,979,979,980,978,978,975,970,973,976,978,978,978,976,977,981,984,989,994,992,986,980,976,978,979,982,986,994,999,1002,1004,1007,1004,1005,1005,1002,1001,1001,1003,1006,1012,1015,1015,1015,1015,1015,1016,1019,1019,1019,1022,1024,1028,1026,1026,1023,1020,1023,1023,1024,1022,1023,1026,1024,1024,1024,1023,1020,1022,1022,1019,1014,1011,1011,1012,1015,1015,1010,1006,1003,1002,1004,1008,1010,1009,1012,1012,1011,1012,1007,1003,1000,998,997,996,997,998,997,994,992,993,997,1000,1000,999,1004,1004,1003,999,992,985,987,991,995,995,994,990,990,991,993,992,989,990,992,996,997,997,996,992,992,991,989,990,989,992,995,999,995,998,1001,1004,1007,1019,1025,1022,1009,996,989,993,1001,1003,1001,997,999,1001,1003,999,997,995,996,999,1002,1002,1003,1002,1006,1010,1014,1008,998,990,991,997,999,1000,1001,1002,1002,1002,1000,993,992,992,996,1001,1002,996,993,994,996,1000,1000,1002,999,998,997,996,999,1001,1004,1004,1005,1004,1002,999,994,994,999,1009,1020,1031,1047,1065,1087,1110,1132,1151,1175,1196,1220,1240,1249,1248,1235,1217,1198,1168,1124,1066,1015,983,964,952,953,958,967,973,975,975,975,974,973,970,969,970,974,976,974,975,976,974,973,974,976,975,976,976,973,973,972,973,975,977,980,979,979,978,981,986,989,990,985,982
