860,859,856,850,851,853,853,856,854,854,852,855,859,857,856,853,850,852,850,852,855,849,850,856,855,857,855,847,845,846,847,849,849,845,848,847,847,847,845,842,839,837,838,837,841,839,836,833,832,839,837,835,831,828,829,831,835,835,836,834,835,837,837,838,837,837,834,836,842,843,842,841,844,848,847,848,845,844,845,848,854,858,857,856,857,854,860,863,864,869,869,876,882,885,884,888,886,887,890,889,888,886,881,881,880,883,883,879,877,873,873,867,863,857,850,848,849,851,850,846,843,843,843,841,839,836,830,834,839,841,842,844,840,836,838,832,825,813,805,797,806,818,836,867,898,939,979,1015,1046,1073,1100,1127,1152,1175,1182,1186,1177,1169,1155,1135,1105,1058,994,935,888,863,858,859,863,868,874,876,870,859,846,832,829,832,831,837,832,827,827,829,830,832,832,830,828,836,837,839,838,836,834,831,830,832,834,833,831,835,836,838,839,837,835,833,833,835,837,834,837,840,843,848,847,843,842,840,841,844,842,840,841,844,847,850,852,855,848,849,849,851,855,856,856,855,861,860,862,856,854,856,856,861,861,862,861,861,864,869,870,868,864,859,861,861,860,860,860,863,865,866,865,857,858,858,858,859,861,857,855,857,858,858,856,852,852,852,853,856,852,851,853,853,858,857,856,855,853,850,850,846,841,840,842,848,851,848,843,838,838,833,839,836,835,838,845,845,847,847,845,847,848,849,848,845,841,845,851,853,853,856,850,852,853,853,857,860,857,855,861,865,868,869,869,872,874,879,883,886,887,891,897,901,905,902,903,902,902,902,896,898,895,891,894,896,893,891,890,887,883,875,868,861,861,861,862,859,862,854,851,852,854,854,850,851,851,851,854,858,859,856,853,848,843,836,827,815,814,825,844,875,913,951,993,1032,1069,1102,1137,1163,1186,1201,1211,1216,1211,1196,1176,1151,1110,1054,991,936,901,882,881,886,896,898,896,888,878,865,854,846,840,842,847,849,848,847,851,850,853,845,846,842,844,850,854,858,855,854,849,851,854,851,853,847,844,847,849,856,853,853,852,853,857,857,857,853,853,857,860,860,863,861,860,861,866,865,865,861,862,864,870,868,870,871,872,874,877,874,874,867,869,875,880,883,882,879,880,883,882,882,883,880,881,881,884,887,887,887,885,886,885,882,880,880,880,883,886,885,888,884,882,884,884,887,882,878,876,877,883,885,883,885,884,883,884,881,881,874,872,873,880,879,883,877,878,874,876,875,874,867,864,862,869,870,871,869,868,869,872,867,864,862,862,865,869,873,874,873,872,872,874,873,871,864,866,869,875,875,878,878,880,884,887,887,885,883,882,887,892,895,900,906,909,915,918,924,923,918,918,924,925,926,930,929,927,928,924,919,913,910,907,909,913,912,908,902,894,893,892,888,888,882,879,876,878,876,875,877,873,877,881,876,874,870,869,871,875,869,864,856,845,835,836,839,851,874,909,953,997,1044,1083,1118,1152,1184,1207,1218,1221,1219,1215,1202,1187,1160,1108,1049,989,940,908,890,886,889,901,909,909,904,894,883,872,869,863,863,860,856,858,859,862,863,862,864,863,866,869,866,865,862,858,860,863,866,863,867,863,865,871,866,867,864,863,865,874,873,874,874,873,872,872,872,872,868,871,874,879,880,877,877,880,883,883,880,879,877,880,881,883,887,881,885,888,892,893,889,885,883,885,889,890,892,888,888,892,893,895,889,888,886,890,891,893,893,891,888,888,891,890,889,884,883,885,887,887,886,889,885,886,889,889,890,883,879,877,883,889,888,887,889,887,885,885,883,881,877,873,875,876,878,874,875,874,872,876,876,872,865,862,865,867,869,870,867,863,865,872,877,874,869,868,868,874,874,877,876,876,878,881,882,878,877,873,875,881,885,886,885,881,882,885,888,890,890,885,887,889,894,901,906,910,915,918,923,925,923,921,920,929,932,933,930,927,925,920,922,919,914,906,906,907,907,899,897,892,890,891,884,880,873,874,874,874,877,877,875,874,874,877,877,875,872,867,868,867,869,863,853,841,833,833,842,858,880,913,950,993,1037,1072,1105,1133,1162,1188,1205,1216,1221,1213,1203,1195,1183,1157,1119,1061,995,940,903,885,881,886,892,900,905,901,895,884,873,861,860,859,860,860,858,858,858,862,862,861,862,862,859,862,862,860,859,857,859,863,864,869,865,861,861,864,863,864,857,856,857,861,866,868,865,862,867,866,864,866,862,866,864,866,872,877,875,874,870,871,876,876,875,873,878,876,880,883,883,882,880,878,880,880,881,875,879,883,887,891,889,883,879,881,883,883,886,886,883,884,891,892,889,888,883,885,883,882,880,879,879,884,886,886,885,881,880,879,880,877,878,872,874,877,880,882,879,873,870,872,870,871,868,864,863,867,870,872,870,864,858,857,858,857,857,856,855,854,857,860,857,852,854,854,855,852,856,856,855,857,861,868,866,865,861,858,857,860,860,864,863,866,867,871,872,871,867,866,867,872,875,874,878,878,885,893,898,899,899,901,904,911,913,909,908,909,907,911,911,911,906,901,896,896,896,892,893,890,887,885,881,875,871,864,857,858,859,859,861,858,857,858,858,857,859,855,851,853,855,856,857,853,849,846,842,838,828,816,812,814,825,850,883,921,955,997,1035,1067,1102,1136,1162,1180,1193,1201,1200,1193,1177,1157,1122,1066,1001,938,888,864,856,864,883,888,891,885,877,870,862,851,843,840,838,841,844,844,842,843,843,847,849,844,841,836,836,840,842,848,846,846,845,842,846,841,842,840,840,844,852,852,850,850,848,850,853,855,847,846,849,849,853,858,859,858,855,855,855,858,854,853,855,857,859,861,863,864,864,864,864,862,857,857,859,861,866,869,867,866,868,868,875,871,865,866,865,867,869,871,870,870,867,869,870,866,861,857,853,856,862,863,863,860,859,861,861,858,858,857,855,858,860,862,860,858,857,858,855,855,854,848,845,845,850,854,857,855,851,850,848,846,845,843,841,840,843,845,843,839,839,841,838,837,837,837,836,841,846,846,845,845,846,849,849,845,842,842,839,844,849,853,850,849,850,855,853,856,856,852,852,854,860,865,863,867,870,879,883,887,888,889,888,892,896,897,894,894,895,896,898,894,890,883,873,876,881,883,880,874,870,866,865,857,852,848,844,845,849,850,847,844,843,843,845,842,838,838,838,837,836,836,830,822,815,807,801,800,808,825,854,898,942,983,1018,1057,1089,1124,1155,1177,1187,1196,1193,1190,1180,1163,1136,1095,1044,983,929,886,861,855,859,872,881,880,874,865,852,847,839,833,828,824,822,826,831,832,832,830,830,829,832,830,830,826,825,828,832,833,833,837,837,839,838,835,833,830,833,839,841,837,840,839,839,843,841,839,834,835,837,841,842,845,840,845,844,848,848,845,843,839,841,845,848,851,851,852,852,854,854,853,850,847,848,851,853,857,855,856,856,860,864,861,858,854,852,856,858,864,864,860,855,855,853,855,859,855,848,851,852,856,857,855,855,856,857,857,858,854,848,849,851,855,854,853,853,857,855,853,850,848,843,844,848,848,847,846,842,842,844,843,842,836,834,834,837,839,840,841,837,838,840,838,841,837,835,837,839,842,841,845,843,845,846,847,842,837,835,839,845,849,849,852,855,856,858,857,856,854,852,859,870,874,875,879,883,892,896,893,891,887,886,890,891,890,888,885,886,887,884,880,875,872,870,867,865,861,855,855,854,852,850,843,840,835,835,837,840,842,840,840,836,839,841,840,840,835,830,831,828,823,814,801,794,801,816,839,871,905,941,984,1021,1062,1095,1123,1149,1170,1181,1190,1187,1176,1167,1147,1122,1080,1025,963,909,872,853,850,858,864,867,866,861,850,842,832,828,822,826,824,822,817,816,816,819,824,823,824,825,825,826,829,826,820,819,817,817,825,827,827,824,825,824,824,826,825,823,823,825,831,833,830,828,828,832,831,833,829,827,829,831,835,835,838,838,835,836,835,839,834,834,834,837,843,846,844,842,843,842,843,844,839,840,838,844,847,848,844,845,844,846,845,845,841,840,841,845,849,844,843,843,843,846,841,842,837,835,837,840,840,843,841,838,840,842,841,839,834,835,836,838,841,841,838,836,834,836,838,834,830,826,827,831,832,830,833,826,826,828,827,826,824,821,821,823,828,827,826,825,824,826,825,824,823,823,821,829,830,829,832,831,832,833,831,828,828,826,830,833,839,843,842,842,840,841,841,842,840,842,844,854,860,866,869,872,874,875,881,878,876,871,869,874,876,880,876,872,866,867,866,865,861,855,846,843,843,842,841,836,836,833,832,833,829,826,824,824,828,826,828,830,828,827,824,825,823,816,811,799,795,788,788,791,804,829,864,908,950,988,1025,1064,1102,1134,1154,1167,1172,1178,1175,1167,1150,1126,1095,1047,987,929,882,848,836,834,845,855,858,857,843,832,826,821,819,816,811,807,810,810,808,809,806,805,811,815,820,819,816,815,814,815,813,810,811,812,814,818,818,821,819,820,818,819,818,817,814,818,820,823,825,824,821,819,823,825,825,821,822,824,828,832,832,830,828,829,830,828,830,826,826,825,832,836,834,837,834,833,833,834,834,833,831,828,832,838,844,842,838,838,833,836,837,838,837,834,833,836,839,837,835,834,831,831,835,831,832,826,826,827,833,832,835,832,825,825,830,830,829,826,827,829,831,832,828,825,821,819,817,817,820,817,818,820,823,824,822,815,810,810,810,810,811,807,812,814,818,820,820,817,815,811,818,818,819,817,817,818,825,826,824,824,821,819,819,825,823,823,824,827,830,837,834,834,832,828,831,832,840,843,847,849,855,859,866,869,869,865,864,866,867,871,872,868,868,865,863,863,856,855,850,851,851,847,840,834,830,829,832,832,829,822,818,816,814,818,820,819,819,816,817,819,819,816,812,811,810,805,799,789,780,776,782,792,809,833,864,904,944,984,1021,1056,1092,1125,1146,1164,1170,1168,1158,1144,1131,1113,1085,1036,975,917,873,846,835,835,839,844,847,847,844,831,821,812,808,803,804,805,801,797,798,806,807,808,809,813,812,815,815,812,807,805,805,805,812,812,813,811,808,810,811,813,809,805,802,806,809,818,818,819,815,814,816,815,817,818,811,811,811,822,823,826,823,819,819,821,822,823,821,819,820,827,828,831,829,825,823,823,826,827,830,820,823,822,831,835,836,833,834,829,833,830,832,829,830,831,831,833,831,829,832,832,828,827,821,820,823,828,832,833,830,826,824,824,825,828,821,818,823,827,830,829,824,821,821,820,821,818,815,810,810,816,821,820,818,814,810,810,813,811,807,803,807,810,814,814,811,808,807,810,808,813,808,806,807,813,814,814,817,814,814,818,815,814,812,812,817,821,818,820,823,827,829,827,828,823,821,825,827,839,842,841,845,848,851,856,859,860,859,861,865,866,864,862,857,858,857,858,856,847,846,846,849,852,850,847,835,829,821,821,820,819,815,812,812,816,817,817,816,810,808,806,807,814,809,808,808,807,810,810,803,791,777,767,770,780,800,833,876,925,970,1015,1049,1077,1108,1133,1151,1159,1156,1151,1143,1132,1115,1084,1030,966,899,856,829,820,814,826,835,842,844,833,818,808,799,799,799,797,794,788,789,795,798,803,799,798,797,797,801,802,799,794,796,800,802,806,804,802,799,798,799,801,798,797,798,797,803,807,808,805,802,799,800,801,798,795,796,801,801,801,802,798,799,800,803,802,802,801,800,807,812,816,815,813,810,809,813,809,808,808,809,809,813,817,815,816,814,812,815,817,816,814,812,816,819,822,821,820,816,813,816,818,812,814,815,817,819,823,817,814,812,811,810,815,810,811,810,811,815,820,822,817,814,810,812,806,806,802,805,807,808,807,804,803,801,803,803,799,797,793,794,799,803,805,803,800,795,793,797,798,801,798,799,801,806,807,806,805,804,802,806,809,810,807,805,805,809,812,819,818,811,811,812,814,818,820,816,815,821,826,836,841,842,842,845,850,854,859,858,860,859,860,866,865,862,856,853,851,851,849,848,849,848,849,841,830,827,821,820,817,815,817,809,812,814,819,820,817,815,810,812,813,812,811,810,809,810,811,806,792,777,770,771,784,801,824,860,894,936,975,1007,1038,1067,1094,1119,1141,1157,1165,1167,1161,1153,1142,1123,1084,1030,966,907,863,839,835,838,846,853,855,853,847,838,823,811,802,799,800,799,803,803,804,808,808,808,805,801,804,806,807,806,807,806,808,812,811,810,805,808,806,809,809,807,807,807,811,812,815,814,812,809,810,810,813,813,810,808,814,818,820,818,817,813,813,816,819,819,817,817,820,824,825,825,824,819,817,820,824,823,823,827,823,825,829,832,831,829,828,831,835,836,835,833,831,832,833,831,830,828,827,830,830,828,829,828,829,833,833,829,825,821,824,828,828,826,825,824,825,828,826,823,823,824,827,828,827,825,821,823,825,825,826,818,817,816,817,819,820,819,816,816,819,819,817,812,809,811,816,818,819,816,816,817,819,819,825,821,820,820,823,824,824,823,827,829,833,834,836,833,832,834,832,828,835,837,846,854,859,862,862,861,867,872,876,870,872,870,875,877,876,876,867,861,860,862,860,857,851,849,848,847,844,839,835,832,831,832,830,826,823,822,824,828,825,822,821,824,825,826,821,813,813,808,799,795,786,785,790,812,843,884,925,970,1012,1061,1100,1133,1160,1173,1184,1182,1168,1147,1119,1075,1015,950,891,853,837,837,849,860,864,863,856,846,838,828,822,816,814,815,817,819,813,807,807,809,811,816,816,815,815,812,816,816,819,813,813,812,813,815,818,818,819,819,820,823,823,818,817,814,814,816,820,821,819,818,819,822,823,822,820,816,820,824,826,825,826,826,827,830,828,824,821,822,826,830,832,832,832,837,839,840,839,834,832,833,836,837,839,839,835,838,841,844,842,838,837,839,837,839,841,835,833,837,838,839,834,833,832,835,836,838,840,839,836,840,842,840,837,831,827,829,827,830,828,833,832,833,836,837,833,826,826,825,824,824,826,826,828,827,828,829,821,821,820,822,824,824,824,825,825,828,832,834,832,826,823,823,828,831,835,837,836,833,835,837,835,833,831,830,833,839,842,846,843,846,843,847,847,851,850,849,853,860,870,875,877,880,883,883,880,880,872,872,873,874,875,878,873,868,866,867,867,865,859,851,847,841,846,847,845,841,834,832,835,828,825,823,820,827,832,835,832,830,831,829,829,829,823,813,807,797,790,789,788,792,801,825,856,901,943,982,1019,1052,1090,1122,1149,1164,1168,1167,1163,1159,1150,1134,1109,1068,1016,957,903,866,842,833,837,844,857,861,856,846,837,829,825,823,819,814,810,809,809,811,809,807,807,813,816,820,819,814,812,813,815,812,809,809,814,816,820,820,818,819,815,815,817,818,814,814,815,816,822,824,824,822,819,817,817,821,819,819,821,825,828,835,832,828,827,825,829,829,827,828,828,829,835,838,838,833,829,829,831,832,831,832,831,832,837,841,841,836,836,833,835,840,840,837,835,837,840,842,841,838,835,835,834,834,831,831,831,835,836,837,834,828,831,827,826,833,825,822,822,826,827,833,829,824,824,820,823,823,817,818,819,820,823,826,821,817,815,815,815,820,816,816,815,813,818,821,821,820,816,813,816,817,817,815,816,815,819,825,824,822,819,819,818,823,824,820,823,822,827,829,831,829,830,830,831,837,834,834,840,848,854,861,862,861,862,862,868,869,866,860,863,865,867,871,867,863,856,851,851,853,852,846,842,839,837,834,832,825,819,816,823,821,819,816,811,813,817,822,819,814,812,811,810,811,807,805,800,796,788,783,778,777,787,806,837,873,911,948,981,1021,1056,1092,1120,1136,1145,1149,1151,1141,1127,1110,1076,1028,971,911,862,828,811,813,826,836,840,834,827,822,816,810,804,796,793,793,793,795,793,796,797,798,803,806,807,803,797,799,800,802,800,799,798,799,803,805,805,804,799,799,802,803,802,797,799,805,811,816,812,808,807,808,810,812,810,812,810,814,816,819,819,818,816,813,815,817,815,811,815,821,823,822,819,819,820,820,819,823,818,818,823,826,830,829,827,827,823,827,824,828,823,819,817,823,825,828,826,820,820,818,820,820,818,817,817,817,821,825,824,821,819,816,817,818,815,816,814,817,816,820,817,814,810,808,812,806,811,805,807,806,808,809,810,805,800,802,803,804,800,797,799,802,806,806,806,802,802,804,807,806,804,804,802,807,813,811,809,809,805,808,810,808,804,803,806
