819,820,819,820,822,820,822,824,824,823,821,819,818,816,819,821,820,820,825,825,825,823,822,821,819,819,820,820,823,823,824,825,827,828,827,826,824,824,822,822,827,829,829,830,831,829,826,827,823,823,824,827,826,828,831,831,829,831,831,830,829,826,827,828,828,829,831,831,834,834,833,835,831,830,832,833,834,835,837,836,837,837,836,835,836,833,833,834,837,836,836,836,836,839,837,837,835,832,833,834,835,837,839,837,837,837,837,837,836,834,833,836,838,840,841,841,839,842,842,842,839,838,838,841,841,846,850,852,854,855,854,852,849,849,850,849,852,855,857,858,857,856,853,853,849,851,848,851,854,853,855,856,853,853,849,845,842,841,840,842,841,844,848,848,849,849,847,847,846,844,846,847,849,853,855,858,861,868,877,891,906,927,954,974,994,1007,1013,1017,1023,1026,1028,1029,1026,1012,999,986,967,948,934,918,905,893,883,876,867,860,857,854,857,859,858,861,862,863,863,862,860,856,856,862,862,865,864,867,868,868,866,865,865,864,864,866,870,869,874,872,871,873,875,872,872,871,871,874,872,874,878,879,880,881,877,880,876,876,879,879,881,882,883,884,886,884,883,885,881,879,881,883,885,885,888,888,890,890,890,889,887,887,887,890,891,891,894,896,898,895,895,894,889,888,888,887,888,890,891,890,887,887,883,882,879,876,873,869,867,865,867,866,869,866,863,861,858,855,852,850,852,854,855,852,852,851,853,852,846,847,849,850,848,847,848,849,851,849,850,846,845,842,842,843,844,845,845,848,846,843,843,842,840,839,840,840,843,843,843,842,843,842,842,840,837,835,836,834,837,838,839,842,842,842,840,839,836,834,835,834,834,835,840,840,839,836,835,838,836,835,835,836,838,838,839,842,842,842,840,838,838,836,836,836,840,841,844,844,845,844,844,841,840,839,839,841,839,840,846,845,846,846,845,844,844,842,845,844,847,849,850,851,850,850,852,852,847,845,846,845,847,849,852,851,852,852,850,849,848,848,846,846,846,849,852,854,852,853,852,851,851,848,848,848,849,851,851,854,851,852,850,850,847,846,849,851,854,857,859,861,863,864,864,864,863,861,862,859,865,867,871,872,871,872,870,869,867,867,865,867,870,871,872,872,871,866,865,866,867,860,862,861,861,859,860,862,864,864,861,860,861,860,861,861,863,866,869,871,873,877,882,888,900,918,940,964,988,1008,1022,1034,1037,1038,1043,1045,1050,1044,1038,1021,1006,990,977,959,945,926,913,901,892,884,876,872,869,869,871,872,872,874,871,872,870,871,870,870,870,873,876,878,879,877,875,876,875,875,875,877,877,878,882,882,885,882,884,884,882,881,882,881,882,887,887,889,890,890,888,886,886,885,887,889,891,892,892,893,894,890,891,891,889,890,890,894,896,897,899,899,899,898,898,899,899,899,898,900,902,904,903,904,906,905,904,905,902,899,899,901,902,903,903,905,904,903,898,895,894,889,888,889,890,891,888,891,887,883,879,879,873,872,870,870,869,870,871,872,872,867,868,868,866,865,866,866,866,867,870,871,867,864,866,865,862,860,858,859,864,864,866,867,865,863,864,860,858,853,855,856,858,858,858,859,859,859,857,855,852,851,851,852,852,852,854,855,853,854,851,851,850,847,845,848,851,853,856,858,856,857,855,852,852,852,852,851,851,856,855,857,856,858,855,852,852,853,852,853,855,856,857,859,858,858,855,855,854,853,853,852,854,856,857,861,860,858,857,855,854,856,855,857,859,860,859,863,861,863,864,862,861,858,858,860,860,861,863,864,864,864,863,863,861,860,858,860,862,864,866,866,865,864,865,865,863,863,864,861,864,865,867,868,869,866,866,865,866,863,865,867,869,873,875,878,877,878,879,880,879,879,876,877,878,883,883,884,887,883,882,882,880,878,879,880,879,882,883,883,882,877,878,874,874,871,869,871,871,873,871,872,872,873,871,871,870,871,873,872,874,875,879,883,888,889,894,903,917,935,959,984,1009,1032,1050,1062,1064,1070,1073,1074,1073,1066,1051,1036,1019,1005,987,971,956,942,925,912,901,892,889,884,885,884,884,886,888,886,885,883,882,882,880,882,884,885,888,889,890,890,890,889,886,887,889,888,891,892,893,896,897,895,895,893,890,890,890,892,890,895,897,899,901,900,897,897,896,895,896,897,898,900,900,904,903,903,902,901,899,898,900,898,900,906,908,908,909,910,910,910,905,907,907,907,909,910,910,913,912,912,910,911,909,908,906,907,909,908,910,908,909,907,904,900,897,896,895,894,894,894,894,893,889,889,886,882,880,878,878,877,871,871,874,876,875,874,875,873,873,870,868,870,871,873,873,872,873,873,872,868,868,866,863,866,868,870,869,871,868,872,869,869,867,866,864,864,864,864,866,868,867,864,865,862,862,862,860,860,861,862,861,862,863,860,861,860,859,858,856,857,859,859,862,862,862,861,861,860,859,859,860,858,861,861,862,864,864,865,864,863,863,863,863,863,864,865,865,868,866,864,861,862,861,863,864,863,865,865,867,867,865,867,868,867,865,867,866,865,868,867,868,870,873,870,869,869,866,865,863,864,866,867,868,870,871,872,872,870,865,869,866,868,869,871,872,874,873,870,869,869,868,869,870,866,871,870,872,876,876,874,873,872,872,871,871,868,871,874,875,875,877,876,876,876,875,875,876,878,882,884,887,892,892,889,890,888,888,886,886,887,888,888,891,891,890,891,890,889,886,887,883,886,886,884,885,886,885,883,882,879,876,873,870,871,874,877,877,880,882,881,881,880,880,882,881,879,882,885,888,896,903,910,922,937,958,979,1001,1021,1038,1050,1061,1070,1077,1078,1080,1072,1057,1040,1020,997,979,959,943,927,919,910,904,897,891,890,887,885,887,889,893,894,893,893,892,892,891,891,889,890,892,893,895,899,899,899,899,900,898,898,896,895,898,900,902,906,906,904,903,903,902,899,900,901,905,908,909,910,909,908,906,906,905,906,906,907,909,910,910,913,913,911,913,913,912,911,911,911,913,914,915,920,919,921,919,917,916,916,917,917,921,921,922,925,924,923,921,919,918,916,915,914,915,915,915,914,914,912,911,906,906,902,899,897,897,896,894,895,892,892,889,887,886,883,881,879,882,882,883,883,882,881,880,880,878,875,876,876,875,878,879,881,880,880,878,877,874,877,877,876,874,877,877,879,877,876,874,871,868,869,868,867,870,870,872,874,870,869,867,864,864,863,863,861,864,865,864,867,865,866,865,865,865,862,862,860,861,863,867,868,868,867,867,865,863,862,862,860,865,865,868,867,868,867,867,867,868,867,866,866,868,869,868,872,871,871,870,869,868,867,864,863,863,866,870,869,872,872,870,870,871,868,866,867,870,870,871,875,874,875,871,869,871,869,868,864,865,869,870,874,873,873,872,873,871,871,871,869,871,873,875,877,873,876,875,874,872,870,869,869,870,872,873,877,876,878,877,876,876,873,873,871,873,876,875,879,880,879,881,880,879,879,882,881,884,885,883,889,891,893,893,889,887,886,884,883,885,889,888,891,892,890,892,888,887,885,880,880,878,880,880,879,879,878,878,879,879,878,876,876,877,881,884,883,885,887,888,888,889,894,902,912,928,946,968,991,1009,1027,1038,1045,1050,1051,1057,1064,1068,1069,1062,1053,1035,1014,995,972,952,933,920,912,904,899,893,891,891,890,888,889,888,890,889,889,890,892,893,894,898,894,894,895,894,894,893,891,894,896,897,899,901,902,901,900,900,899,900,901,901,902,905,907,908,907,907,906,903,905,904,905,906,907,908,910,911,910,908,910,909,907,907,909,911,913,915,916,919,918,917,917,916,915,913,914,915,920,921,922,924,923,926,924,923,921,921,920,921,920,924,923,923,922,919,918,913,911,912,909,907,907,907,906,904,904,902,900,898,895,889,888,889,888,888,888,888,886,886,884,884,883,881,882,882,885,886,887,887,886,887,886,885,884,881,881,883,883,885,885,887,885,884,881,881,880,876,876,877,878,878,880,879,879,879,877,872,871,871,869,872,871,873,874,874,873,872,872,869,868,865,865,867,868,870,872,873,873,873,872,872,867,868,870,869,872,872,875,876,873,876,873,874,870,870,871,871,873,872,875,875,875,876,871,873,874,874,872,871,874,876,878,877,875,876,878,876,875,873,873,876,877,877,876,880,880,878,876,874,874,875,875,875,876,877,877,880,880,877,876,875,872,874,876,875,875,876,877,878,879,879,879,881,878,879,877,880,879,882,880,886,884,884,882,882,879,879,878,878,879,881,882,881,880,883,884,882,880,880,882,885,889,893,896,896,899,897,894,892,891,890,892,893,896,897,898,899,896,895,892,891,893,895,893,892,893,894,893,892,891,891,890,887,884,883,884,884,883,885,885,885,887,887,887,886,885,885,887,891,895,899,902,910,923,937,954,975,995,1016,1035,1050,1060,1064,1072,1077,1079,1077,1071,1058,1042,1023,1008,990,972,960,945,935,926,919,910,903,896,892,893,891,896,899,901,899,902,902,899,899,897,896,897,895,897,900,906,908,906,907,906,905,903,903,902,904,904,905,908,910,909,910,909,911,910,909,908,910,911,913,916,915,916,916,914,916,913,911,910,912,913,915,918,920,920,918,917,917,918,917,918,921,922,925,928,930,930,927,926,928,925,925,926,924,927,929,931,932,931,930,927,926,922,921,923,923,923,923,922,923,922,918,917,916,912,908,905,905,906,906,907,905,905,903,896,893,890,891,888,888,890,891,895,894,896,891,891,887,887,885,884,884,888,890,891,891,893,892,891,889,889,888,886,885,888,889,890,889,886,883,885,881,882,880,880,881,881,882,884,884,880,880,879,875,874,873,873,877,878,878,877,881,879,877,876,875,873,872,871,872,874,875,877,878,877,877,879,875,872,869,871,874,875,873,878,880,880,880,879,879,878,878,875,879,878,880,883,884,883,882,880,881,880,877,880,880,883,885,887,888,886,884,882,882,880,881,882,882,884,886,888,890,888,886,884,883,883,882,882,883,881,885,886,887,888,887,886,887,886,885,885,884,883,884,887,885,886,886,884,885,883,882,884,884,885,887,888,889,890,890,890,887,885,885,887,888,890,890,888,892,891,891,890,889,888,885,886,888,889,891,894,897,897,896,896,896,897,898,898,900,900,903,903,906,904,904,904,905,900,901,900,899,900,900,903,905,905,905,904,902,899,898,896,892,897,893,894,896,896,894,893,893,893,892,892,892,895,897,894,900,901,901,899,898,901,903,910,919,932,951,973,999,1024,1051,1071,1087,1097,1100,1105,1108,1111,1108,1103,1090,1072,1056,1040,1024,1008,992,977,964,949,941,932,926,920,916,910,908,906,906,904,907,908,908,910,913,913,913,912,911,906,908,908,909,911,911,913,915,915,915,914,913,913,913,912,912,914,914,917,918,919,919,918,916,916,913,913,912,917,918,921,923,923,923,920,919,918,920,919,919,920,925,926,926,926,928,927,925,926,923,924,923,924,928,931,931,930,931,932,933,931,931,931,932,933,933,934,934,931,933,930,928,927,922,924,922,922,921,921,920,917,915,913,911,906,903,903,900,900,899,901,901,899,898,896,895,893,895,892,894,894,893,894,893,896,895,893,892,892,889,889,888,890,892,894,894,897,896,893,893,888,889,888,887,886,887,891,890,891,890,888,887,886,882,881,882,882,884,885,886,886,886,883,882,880,879,878,878,879,880,881,880,882,883,881,878,877,876,875,878,877,880,880,882,880,882,882,880,879,879,879,878,881,882,884,882,884,883,882,881,882,880,879,880,880,881,883,885,885,885,885,882,882,880,878,880,881,884,885,885,885,887,885,884,882,882,883,881,883,885,885,888,886,887,885,884,884,884,885,883,885,887,886,890,890,889,889,889,886,882,883,885,886,889,887,890,888,887,885,887,885,885,884,884,885,885,886,888,889,889,889,887,888,886,886,885,885,888,889,890,890,891,891,891,894,892,893,894,896,897,900,899,897,897,897,898,896,895,892,894,894,898,897,901,901,903,900,899,897,894,894,890,891,891,888,888,889,892,887,887,885,886,884,883,884,888,889,892,891,892,892,891,891,894,893,897,903,913,926,947,967,991,1014,1039,1059,1074,1080,1088,1095,1100,1104,1101,1090,1075,1058,1043,1025,1008,990,972,955,945,934,926,917,911,904,899,898,896,895,897,899,898,900,902,902,904,899,897,896,894,898,901,902,903,906,907,905,906,905,904,904,903,901,901,902,904,905,911,910,909,909,909,909,906,906,908,910,911,913,914,915,914,912,911,910,911,908,912,914,916,916,917,917,916,917,917,915,915,916,918,920,919,921,922,921,922,922,917,919,920,917,920,923,923,925,925,922,924,918,917,918,914,911,911,912,911,913,912,909,909,907,905,901,897,895,893,892,894,893,895,894,892,891,887,885,885,883,881,883,881,882,884,883,886,882,883,881,881,879,879,880,882,887,886,883,883,880,876,875,874,873,874,875,877,877,878,880,879,877,875,873,871,868,869,870,871,872,876,873,873,871,868,865,866,861,863,866,866,862,864,864,865,864,863,860,862,861,859,861,861,863,864,867,866,865,864,863,863,861,863,864,864,863,868,868,869,868,867,867,866,865,866,865,868,868,873,871,869,869,869,867,866,865,867,870,870,872,870,870,869,870,872,870,870,867,867,868,871,872,874,872,870,872,871,872,870,870,870,873,873,874,876,875,875,876,873,872,871,870,869,872,874,876,875,875,877,875,874,872,874,872,871,872,873,875,877,876,873,875,871,871,872,869,871,872,872,878,877,878,877,875,873,872,870,869,868,871,873,877,880,879,880,879,880,882,883,884,883,882,883,886,887,886,886,886,886,885,884,885,885,886,886,888,888,887,884,884,881,879,876,873,869,870,873,874,878,877,879,878,875,876,874,875,873,874,876,880,884,886,884,886,896,905,919,938,960,986,1009,1032,1048,1058,1066,1071,1077,1082,1081,1070,1059,1043,1028,1011,991,972,954,939,924,912,902,892,888,885,884,882,887,886,884,886,882,883,881,883,883,886,887,888,888,891,889,890,888,888,887,888,887,889,890,893,895,894,890,891,890,888,887,890,889,894,893,893,897,895,897,895,896,896,895,894,892,894,896,897,900,899,898,900,899,896,896,898,900,901,900,902,907,904,902,904,902,904,907,904,905,907,908,909,909,912,911,910,910,909,904,903,906,906,910,909,909,906,902,901,900,898,896,893,892,892,893,892,891,890,888,886,885,881,880,876,877,875,876,877,879,878,878,875,873,871,871,870,866,871,872,874,875,876,875,872,870,869,867,866,866,866,866,868,869,869,869,864,864,859,858,856,856,858,858,860,860,859,857,859,857,854,852,851,851,852,853,855,854,854,855,851,849,848,847,847,845,845,847,847,850,851,852,853,849,850,848,846,846,845,847,849,851,852,850,850,850,846,844,848,846,847,850,850,852,852,853,853,852,849,849,848,847,847,849,852,854,855,856,853,852,854,852,851,852,852,852,854,856,856,856,856,854,853,851,850,853,853,857,857,857,858,858,854,855,852,852,853,850,852,855,854,858,854,856,857,855,855,855,853,852,855,855,858,859,859,859,858,857,856,854,852,854,854,856,856,859,857,860,857,856,856,853,853,853,856,858,857,859,864,861,862,860,860,858,857,860,859,861,862,866,870,871,871,871,871,869,866,867,868,869,870,872,874,872,872,871,870,868,867,868,869,871,874,875,872,872,870,867,865,863,859,860,860,861,864,864,863,865,864,863,864,861,860,862,863,866,868,871,874,878,882,891,902,920,938,962,982,1005,1022,1033,1039,1044,1048,1054,1055,1052,1042,1030,1016,1002,987,971,951,936,920,903,895,884,874,872,870,868,870,870,869,871,871,871,871,871,871,871,873,876,877,878,878,880,880,877,877,877,877,876,878,880,879,881,885,885,882,882,880,882,880,879,882,882,885,886,888,889,886,888,883,883,883,884,883,884,889,891,891,892,890,891,888,887,890,887,888,892,893,894,894,894,896,895,895,894,893,893,897,898,897,899,899,896,898,897,896,893,894,894,892,894,895,896,895,894,891,890,887,885,880,881,876,877,877,876,876,875,872,868,867,866,864,862,861,861,862,864,863,863,863,860,861,857,854,852,854,856,858,860,860,860,861,858,856,852,852,852,851,851,853,855,854,853,852,849,847,844,840,841,843,843,844,845,844,845,844,842,841,840,838,838,839,838,841,839,840,840,841
