848,849,850,852,851,846,844,845,844,843,847,849,851,852,850,850,851,849,852,845,849,849,852,854,859,856,861,862,867,865,875,892,917,959,1003,1052,1103,1158,1204,1230,1220,1175,1095,1001,894,805,744,719,723,750,779,803,812,818,818,822,823,829,838,847,849,854,856,855,852,847,847,849,845,849,849,853,853,856,855,858,856,852,851,852,851,849,850,851,854,853,856,858,859,857,852,852,851,848,853,856,857,857,857,855,855,853,856,853,851,848,856,854,855,860,861,862,861,861,859,857,857,861,859,863,866,869,872,875,874,874,873,874,874,874,879,882,882,891,893,894,897,900,898,897,899,901,902,909,915,919,924,924,925,927,928,924,927,927,930,935,937,939,940,939,938,935,932,928,923,921,918,917,916,914,910,906,900,898,889,885,881,876,875,872,872,874,872,870,867,867,865,861,858,856,857,859,860,863,865,863,861,859,856,853,852,852,852,854,855,858,857,855,856,860,858,857,853,853,855,856,860,860,862,862,859,863,860,859,859,858,861,861,863,863,865,867,867,868,862,862,863,862,863,865,863,865,868,868,869,867,864,861,857,857,857,856,862,865,859,859,860,857,854,850,854,854,856,852,858,860,860,861,860,856,854,856,853,853,854,855,857,856,855,855,855,852,851,847,850,848,850,853,856,858,858,857,858,855,850,854,852,849,849,851,854,856,857,858,857,858,850,852,849,849,852,851,856,857,858,857,855,857,853,852,850,850,849,848,851,851,856,857,857,854,855,852,852,851,853,853,854,857,857,857,859,854,854,854,853,855,855,856,858,859,859,860,857,858,855,854,855,853,855,856,859,862,864,863,866,868,867,870,872,872,874,874,879,882,887,891,895,895,895,894,890,882,880,882,880,882,884,885,887,884,881,876,869,864,860,858,854,855,860,858,856,851,849,846,845,845,846,846,843,849,851,851,850,848,845,843,846,844,847,849,851,853,857,857,857,853,851,851,850,849,854,856,858,862,866,866,866,866,864,867,883,906,944,992,1042,1096,1152,1207,1247,1260,1233,1170,1075,960,847,759,712,701,720,752,784,804,818,821,825,831,838,847,855,857,859,859,858,856,854,851,851,851,852,857,857,858,861,862,862,862,856,854,852,853,855,856,859,859,861,859,860,862,857,853,855,854,852,856,860,861,859,859,856,857,854,855,851,853,858,860,862,862,865,866,865,865,865,864,862,866,865,869,872,875,875,876,880,881,881,879,879,881,885,887,892,895,900,901,906,906,908,908,911,913,917,919,923,925,930,927,930,932,931,931,932,931,931,933,934,939,938,934,933,931,924,919,915,910,908,905,903,902,899,896,892,890,884,879,875,875,874,872,872,875,875,874,873,868,865,863,863,865,862,865,866,866,872,868,870,868,868,866,864,863,864,865,867,869,868,870,869,867,864,865,864,863,868,868,869,871,876,876,875,872,872,867,865,869,872,872,871,875,876,878,875,875,872,871,870,869,869,871,871,873,874,874,870,873,866,867,866,863,862,865,866,867,869,869,869,867,866,864,862,858,860,864,863,865,867,868,867,864,861,859,856,857,859,859,860,862,861,859,861,858,858,857,856,852,854,852,857,857,859,857,859,860,856,855,853,853,852,853,857,859,858,859,857,859,855,854,853,851,852,853,854,857,859,858,858,855,851,851,851,853,852,852,854,857,859,858,858,858,854,852,853,852,853,850,852,854,858,856,859,856,856,853,851,851,851,851,854,855,856,856,857,857,853,853,852,849,853,853,854,854,860,859,860,855,854,855,852,853,853,855,856,860,860,859,861,861,861,859,859,864,866,870,875,877,883,884,885,883,883,880,882,886,885,887,885,883,880,879,881,879,874,875,875,873,874,870,873,870,872,868,865,857,855,849,849,847,846,848,847,848,848,849,849,849,846,845,844,843,844,845,846,848,849,849,850,851,847,846,846,846,848,847,852,853,854,857,858,856,857,850,852,855,856,861,865,866,876,886,904,930,967,1010,1053,1100,1150,1196,1243,1261,1250,1206,1128,1030,922,825,756,729,738,766,807,830,849,851,849,845,844,845,849,851,856,858,858,857,858,858,859,858,858,858,857,854,853,854,859,860,864,864,861,859,855,855,855,854,854,855,859,856,859,860,860,859,856,856,856,856,854,860,859,862,866,865,863,864,865,862,861,856,857,862,866,864,870,874,873,872,873,872,875,872,875,877,881,883,888,892,892,894,891,891,892,895,896,903,906,910,914,917,917,917,920,924,925,928,931,936,937,940,945,948,951,949,952,948,949,945,948,945,946,945,944,941,938,933,927,921,913,909,906,903,898,897,893,894,890,888,885,880,879,872,873,874,874,875,874,876,874,869,870,868,865,864,866,866,864,866,867,869,865,864,863,864,861,862,864,862,863,866,868,871,867,868,866,864,863,864,863,863,867,867,870,870,872,869,867,866,864,864,863,864,868,870,873,872,871,870,868,868,864,861,861,862,864,865,869,867,868,866,863,861,860,858,860,860,862,863,863,865,863,863,861,861,856,856,855,859,862,859,862,861,862,861,858,858,856,856,853,857,857,859,859,856,858,856,855,852,854,854,852,856,856,856,860,861,860,860,859,854,853,854,848,851,851,857,858,859,858,855,852,852,854,851,851,852,855,857,860,857,857,860,857,855,854,852,849,851,853,853,858,855,855,852,851,851,851,852,854,852,853,854,857,856,857,858,854,855,851,850,849,851,855,858,858,859,858,859,857,853,855,854,853,854,856,856,861,860,860,858,858,853,853,853,854,852,856,859,857,858,860,858,856,855,856,854,854,857,859,858,860,860,857,859,857,857,858,855,857,861,858,862,871,876,877,877,878,877,877,874,874,876,880,885,891,893,889,886,881,875,875,874,872,871,872,876,876,874,873,867,863,860,857,853,848,845,844,848,845,845,846,844,841,840,836,834,836,834,838,840,845,844,842,844,844,837,839,841,840,840,846,845,848,851,848,848,848,844,844,841,846,849,855,855,862,865,868,875,894,924,961,1006,1051,1099,1152,1198,1223,1219,1172,1097,997,894,805,746,719,729,760,791,814,825,829,834,835,835,839,839,844,846,848,847,847,847,847,848,846,842,846,844,843,845,847,850,850,854,851,847,848,845,846,844,846,848,848,852,852,850,850,850,849,848,850,845,843,848,850,852,857,854,856,853,852,850,847,850,854,854,857,857,863,861,863,865,864,864,865,867,866,865,870,876,876,880,884,884,879,882,886,888,890,893,897,899,903,907,910,913,913,913,915,918,919,923,928,930,933,939,940,937,933,934,931,933,929,927,930,929,927,925,920,917,909,904,897,895,891,886,885,883,882,878,872,871,869,866,867,865,862,860,860,860,861,863,860,862,860,857,857,856,852,853,857,855,859,860,860,856,856,855,853,854,852,856,857,860,862,863,865,864,862,859,859,857,856,860,861,862,864,869,867,868,865,862,862,860,859,859,862,866,868,868,868,868,864,861,861,859,859,859,859,863,864,864,863,861,860,858,855,851,849,854,854,855,858,857,857,856,856,855,854,851,849,849,848,851,852,855,856,852,852,850,851,846,848,848,851,855,856,853,853,854,854,849,850,850,846,846,848,852,854,856,853,855,853,849,849,849,850,851,851,853,854,852,850,853,850,849,847,844,845,846,849,849,850,854,853,851,852,849,845,844,844,845,848,848,849,848,853,851,853,852,846,846,850,850,850,851,853,855,857,859,859,860,861,865,865,867,870,875,877,878,884,886,886,886,882,879,879,875,872,872,876,873,876,876,878,873,869,861,853,853,851,851,851,852,846,846,843,840,839,837,837,837,836,840,842,844,843,843,842,841,839,838,841,839,839,846,846,849,847,847,847,845,843,842,842,845,846,851,852,857,859,858,858,857,853,855,857,867,886,916,960,1008,1058,1111,1162,1213,1242,1239,1198,1122,1024,913,817,748,714,711,727,754,776,795,804,814,824,833,840,848,854,853,853,849,848,844,844,846,844,846,854,855,854,856,854,851,851,848,848,850,850,854,857,858,855,858,855,851,851,851,851,849,851,852,855,859,858,856,852,851,846,848,848,853,852,856,857,857,858,858,855,859,856,857,859,860,861,864,868,870,870,869,869,869,872,870,874,878,879,880,886,888,891,893,892,895,894,896,898,901,902,906,910,915,917,915,918,918,919,922,925,926,928,930,934,935,935,935,930,928,926,923,917,916,915,913,912,911,907,905,898,892,887,883,878,878,878,878,878,877,872,872,871,868,864,862,860,859,862,863,864,864,865,866,861,862,860,858,859,858,860,864,865,867,865,865,865,863,862,860,863,861,862,866,865,867,869,867,865,862,863,861,866,866,865,871,871,875,874,871,870,868,868,864,865,866,870,870,870,871,874,871,872,868,867,863,864,864,867,866,869,868,868,865,868,864,862,859,862,860,864,865,866,867,865,864,863,864,861,860,859,861,860,862,865,865,865,863,860,859,857,856,857,856,856,857,861,862,862,862,859,856,855,854,852,854,855,858,857,856,857,859,856,857,855,856,854,853,855,857,858,859,861,859,857,854,852,849,849,850,853,856,858,862,858,859,857,854,853,851,850,851,857,857,855,857,859,860,856,857,854,853,854,852,855,859,860,863,863,861,865,863,868,867,870,874,874,879,880,881,882,882,883,885,882,882,880,878,877,880,879,880,880,878,878,875,872,868,866,865,864,863,861,859,854,852,849,850,845,842,835,837,839,845,846,846,845,845,844,842,842,839,840,839,840,839,844,845,848,848,850,843,843,844,843,844,844,847,849,852,853,854,852,852,850,853,854,854,859,863,867,878,892,921,957,999,1041,1088,1136,1186,1232,1261,1259,1228,1161,1072,966,866,782,734,722,739,771,804,828,839,840,839,833,836,838,842,846,854,854,856,856,855,855,853,854,849,851,852,852,853,853,854,856,857,857,858,856,854,852,848,852,853,850,855,856,854,853,854,856,853,852,852,852,854,853,853,854,858,857,859,856,855,853,850,849,849,854,856,860,863,863,865,864,862,861,861,864,865,869,872,873,878,881,881,883,882,884,885,888,889,896,900,905,908,913,912,914,914,914,916,919,925,929,933,936,941,944,946,942,944,946,945,945,943,945,944,946,940,940,936,929,923,918,911,906,899,896,894,897,892,892,890,886,878,875,872,870,868,868,871,875,876,876,877,873,871,869,866,864,864,866,862,864,866,868,868,864,865,864,862,863,863,862,867,867,868,871,872,870,868,866,865,866,864,864,864,871,871,873,871,871,869,868,864,866,863,867,870,871,873,875,874,875,871,867,866,867,866,867,864,867,866,871,869,868,865,861,859,860,860,860,860,865,862,865,862,858,858,856,856,856,853,858,857,859,860,860,860,858,854,854,853,851,851,852,854,859,861,861,858,859,853,850,849,846,850,851,853,853,855,856,856,856,852,851,847,846,848,849,851,853,857,854,858,854,854,851,850,850,849,851,854,853,853,856,854,849,851,848,849,848,849,847,851,852,857,857,856,856,852,853,851,851,850,850,853,853,856,857,853,857,854,852,852,851,850,850,850,854,856,856,856,856,852,850,850,849,847,852,854,855,858,857,857,855,856,855,852,852,852,854,856,858,860,859,861,859,856,857,855,855,856,862,866,873,878,878,883,881,882,878,880,881,883,884,890,889,889,886,884,880,876,876,873,874,870,874,874,875,874,871,869,864,859,855,851,848,848,846,848,846,849,850,850,848,848,844,844,844,844,843,845,848,852,851,849,848,845,844,841,840,838,842,844,847,850,853,852,851,850,850,848,850,851,852,855,860,863,864,866,872,881,896,927,966,1007,1052,1098,1148,1197,1229,1238,1213,1155,1073,972,872,791,744,730,745,778,804,826,835,833,830,826,828,832,838,849,856,859,861,857,854,852,850,850,851,849,851,852,854,854,856,858,857,855,854,855,851,851,851,852,852,857,859,857,857,856,853,852,851,851,851,855,856,858,858,859,857,852,852,854,852,852,855,857,863,864,865,865,865,865,863,862,860,866,867,870,874,875,875,877,878,881,882,882,884,887,890,894,897,903,904,907,910,911,910,910,911,915,921,924,931,934,935,939,939,941,942,942,942,942,941,942,944,947,950,945,942,938,931,924,917,915,911,910,907,907,905,900,895,890,885,883,879,878,876,875,874,872,874,875,872,871,870,865,864,862,865,864,867,867,869,866,865,864,863,856,856,860,861,863,864,866,868,867,870,868,866,863,863,864,862,867,867,869,871,870,869,867,863,863,861,860,864,865,867,868,867,867,867,864,865,863,861,860,862,865,869,869,869,869,865,864,861,858,858,858,860,859,863,865,864,865,865,860,861,856,854,856,858,859,859,862,860,862,858,857,856,853,853,853,850,855,856,854,859,858,859,856,851,853,848,849,851,852,855,859,860,859,857,855,854,849,852,852,854,854,854,855,859,857,855,851,852,851,848,845,848,853,854,857,858,858,858,856,854,853,852,854,851,853,856,857,857,860,858,858,854,853,853,851,853,858,859,859,856,858,854,855,854,853,852,853,852,854,857,855,859,861,863,861,861,861,863,864,868,872,876,875,881,880,879,879,880,884,886,888,891,890,888,888,887,883,884,881,879,878,877,876,874,874,873,865,865,860,856,853,854,848,848,846,846,846,848,844,850,849,850,849,849,845,843,845,846,846,848,849,851,853,851,849,846,846,847,848,849,851,850,851,856,856,855,854,851,851,855,858,859,861,865,871,885,910,946,989,1033,1081,1133,1184,1226,1244,1226,1168,1086,983,881,794,736,715,719,740,766,795,809,815,823,826,832,837,846,851,855,854,854,853,851,852,852,855,856,856,856,853,852,851,850,854,856,856,857,857,859,855,854,854,854,855,854,856,857,857,859,858,859,857,859,855,854,855,855,854,857,860,861,860,862,861,861,857,856,857,857,857,861,864,865,868,872,870,867,861,864,867,865,871,875,873,876,879,881,884,882,882,884,887,889,894,899,902,907,909,915,910,911,911,912,913,915,920,925,930,933,935,936,938,933,933,934,934,933,935,936,936,936,933,930,922,917,909,910,906,900,899,900,896,893,888,888,883,879,873,874,872,870,869,871,869,874,872,871,870,869,869,866,864,865,865,868,867,869,868,869,867,864,862,862,863,864,867,868,869,865,866,873,872,871,870,869,868,867,872,872,874,877,878,878,876,870,870,869,869,869,868,872,870,875,876,879,875,873,873,872,870,869,871,872,874,879,876,872,873,871,865,867,865,869,870,868,870,871,871,873,871,867,867,864,862,863,864,865,865,865,868,868,869,866,863,864,864,862,864,866,866,868,865,863,864,859,859,856,862,861,862,865,864,869,868,867,866,866,865,861,862,864,864,865,866,866,869,865,866,865,860,862,857,861,863,866,868,869,869,864,866,864,865,864,859,860,863,866,867,870,869,870,868,867,866,867,866,868,872,877,878,885,886,890,888,888,884,884,885,890,892,897,898,900,896,896,893,889,886,883,883,882,884,884,887,886,882,876,871,866,860,858,855,853,853,853,852,857,852,856,852,852,850,850,849,851,849,850,853,854,856,854,852,849,847,848,847,848,851,853,854,856,857,858,862,859,858,859,857,861,861,866,868,873,875,880,889,905,937,979,1025,1077,1137,1194,1242,1264,1255,1211,1135,1038,928,832,755,726,731,760,796,823,840,847,845,844,842,846,851,855,861,866,865,864,864,862,859,859,858,858,858,858,858,860,863,865,867,865,863,861,862,860,861,860,859,864,866,861,864,863,865,862,862,858,859,859,861,861,865,867,864,865,867,864,862,860,860,861,864,866,867,871,871,871,869,872,868,869,872,871,874,879,880,882,886,888,888,887,890,891,892,893,900,904,907,915,917,919,921,920,924,927,927,926,933,937,942,946,947,949,946,948,947,946,946,947,947,944,946,945,938,939,932,925,919,914,909,903,899,896,896,893,889,886,880,877,874,870,867,866,866,866,868,868,870,866,868,865,865,860,860,859,859,860,861,863,863,863,859,858,857,855,853,856,857,862,862,863,864,862,862,860,856,855,855,857,858,860,862,861,864,866,864,864,862,858,858,858,861,863,864,867,863,865,862,860,860,859,858,858,855,860,862,862,865,863,860,854,856,854,856,854,857,857,856,859,857,857,858,853,855,853,851,849,849,852,853,853,854,855,854,851,849,848,849,848,849,850,851,853,852,854,854,853,851,849,848,846,849,847,850,852,852,851,850,848,847,849,846
