855,857,857,857,856,854,852,852,851,856,859,860,861,862,859,860,857,856,855,853,855,858,859,859,862,864,866,866,862,860,858,857,859,861,864,866,864,867,866,863,862,861,859,858,863,866,869,870,872,870,868,866,865,864,866,864,867,865,866,866,866,866,865,868,867,868,865,864,865,868,870,871,871,871,871,867,868,867,866,864,866,867,868,871,871,874,875,871,871,869,866,866,867,868,870,870,871,874,870,872,869,869,868,867,866,868,870,873,877,879,881,881,881,877,874,874,873,876,875,878,879,878,878,876,874,873,874,875,877,875,877,877,875,874,870,870,868,867,863,862,859,857,858,862,864,865,866,865,864,863,861,862,862,863,865,867,874,880,886,894,908,924,949,973,994,1012,1030,1044,1053,1060,1062,1068,1062,1054,1038,1020,1002,986,969,953,937,923,911,901,887,877,866,859,854,856,857,861,865,869,870,869,867,869,867,865,864,866,869,867,871,872,871,871,870,869,866,868,870,872,876,877,879,880,876,873,873,874,875,872,872,872,874,875,876,877,879,881,882,881,877,878,877,877,879,879,881,881,882,880,882,882,883,882,882,883,885,886,887,890,894,891,887,886,881,883,886,888,889,892,894,893,891,892,888,886,886,886,885,881,879,882,884,884,882,881,877,876,872,870,867,868,868,868,867,867,865,861,859,858,855,852,853,854,855,855,856,856,853,851,850,849,846,845,846,848,850,851,857,858,856,855,853,849,848,848,848,847,847,848,849,850,850,846,846,846,845,841,839,839,840,843,844,844,840,840,836,834,835,835,833,835,837,839,839,837,836,834,835,835,837,834,837,834,836,833,835,834,837,836,835,834,832,832,832,830,833,832,833,836,837,836,836,834,833,834,832,830,832,835,835,839,841,837,836,834,833,834,836,835,836,838,834,836,840,840,838,839,838,835,835,835,835,839,841,840,842,840,838,839,836,835,835,834,835,835,839,842,841,839,838,837,838,836,837,838,839,839,841,841,838,839,837,836,835,835,835,834,833,836,836,838,838,838,835,836,838,833,834,835,837,839,841,842,841,838,837,838,831,828,831,835,836,841,840,845,843,842,842,840,841,843,842,844,847,848,849,850,849,849,848,848,846,848,845,847,849,851,851,852,851,849,851,848,846,848,846,844,845,845,846,847,848,847,844,840,836,833,833,835,837,837,839,840,841,843,841,842,843,840,841,843,846,852,859,874,889,910,928,950,970,986,998,1012,1022,1030,1039,1045,1044,1035,1020,1001,986,968,948,928,911,894,883,873,869,859,853,847,843,840,841,841,844,848,849,852,850,850,848,848,846,845,846,847,848,850,854,855,858,857,857,853,853,850,851,852,855,856,858,860,860,860,859,858,857,857,857,856,858,862,862,864,864,866,862,862,860,858,857,857,855,858,859,863,864,864,865,864,861,862,861,861,864,868,869,869,866,867,866,866,862,861,867,866,869,869,869,869,869,870,869,865,863,864,863,864,863,866,867,868,865,861,858,855,852,849,846,845,843,845,845,847,844,843,839,837,836,835,832,830,829,831,833,834,835,834,831,829,828,826,825,825,827,829,828,829,829,829,828,826,826,824,823,823,822,826,827,823,825,823,824,823,818,819,819,819,820,817,816,818,819,818,817,818,814,811,809,810,811,813,814,816,815,816,814,814,812,811,810,812,811,814,814,815,812,813,813,808,809,807,808,812,811,814,816,817,816,817,815,814,813,813,811,812,815,815,815,817,815,816,817,816,816,815,817,815,816,818,818,822,820,819,818,818,816,817,818,818,821,822,819,822,822,820,819,816,818,818,816,816,818,820,820,824,824,825,825,821,819,818,817,817,824,825,826,825,825,821,820,819,816,818,820,820,823,822,824,826,823,824,824,823,823,823,821,822,824,822,823,822,823,824,824,823,821,823,821,821,823,823,825,829,826,825,823,823,820,823,823,826,828,834,834,838,836,835,836,836,835,835,833,831,836,836,837,838,836,835,834,833,832,833,832,834,837,833,831,835,833,832,831,829,827,824,824,824,822,826,826,831,829,827,829,827,824,823,824,824,829,833,837,841,842,847,853,861,879,902,925,952,971,990,1000,1009,1014,1020,1020,1017,1003,983,965,943,923,904,889,878,867,858,846,839,833,829,826,826,827,832,835,837,838,838,837,837,835,834,834,835,838,837,842,847,844,844,844,840,840,839,840,837,841,840,842,844,845,847,847,845,846,847,845,845,846,846,846,849,845,849,849,849,850,848,847,847,849,851,853,855,856,855,855,853,853,850,851,853,855,857,859,861,864,862,862,860,861,860,858,859,859,862,861,864,864,862,863,860,859,860,859,857,856,858,858,859,857,857,855,853,848,844,843,842,843,841,841,841,840,839,837,833,830,825,825,824,827,826,829,829,826,822,821,820,819,820,819,821,824,822,824,824,822,822,821,820,821,821,819,818,817,817,817,821,819,818,818,817,816,811,812,813,815,814,812,812,812,810,810,808,810,805,806,806,808,809,811,810,809,808,808,806,805,805,803,804,803,805,805,809,808,807,806,806,804,805,804,807,808,810,812,814,813,812,811,810,808,805,803,804,805,803,808,811,812,811,811,811,808,807,805,808,811,811,813,815,815,813,811,812,807,809,807,809,810,812,815,816,813,812,809,808,807,810,811,807,811,810,811,814,814,813,813,810,809,809,810,810,810,814,815,815,812,812,811,808,807,809,807,810,809,811,810,811,810,809,812,811,809,807,807,808,808,809,812,813,814,815,815,812,811,809,806,806,809,811,812,815,815,814,813,813,810,811,810,810,812,815,819,820,824,821,822,824,822,822,818,820,822,825,828,828,828,825,825,823,825,824,824,824,824,826,827,827,827,825,824,823,820,819,815,815,811,813,813,814,815,818,817,816,818,813,813,815,815,818,818,824,824,827,833,840,851,869,893,924,955,980,1001,1020,1025,1033,1034,1029,1018,1002,985,967,953,937,920,904,886,871,858,849,838,832,827,824,824,825,828,830,834,833,830,828,826,827,824,828,828,831,833,834,837,836,835,833,830,828,829,829,835,838,837,838,839,837,837,838,838,835,837,839,836,837,839,844,844,844,843,843,840,843,840,841,841,842,842,846,847,846,845,847,844,844,843,842,845,848,849,848,850,852,852,851,852,851,850,850,850,850,852,853,856,854,854,850,848,844,843,843,845,846,847,847,847,843,841,838,838,834,829,828,828,825,823,827,825,825,821,817,818,817,814,814,815,815,817,816,818,816,816,813,811,811,810,808,809,810,813,814,816,814,814,812,811,808,806,805,806,807,808,810,810,809,807,807,802,802,804,803,803,804,804,805,804,805,803,799,799,798,798,799,798,799,800,803,803,802,799,800,798,798,798,798,799,800,802,803,804,802,802,800,799,798,799,798,798,801,803,804,806,807,804,803,802,800,800,798,802,807,806,805,807,805,806,805,806,804,802,804,806,807,810,810,811,812,810,810,807,806,807,806,807,806,812,814,814,814,813,812,811,808,808,809,811,812,812,813,812,814,813,813,810,812,807,808,808,807,810,813,815,813,813,813,812,810,811,810,812,811,814,816,817,814,816,814,812,809,809,811,812,814,816,816,817,816,816,814,811,810,809,812,812,816,818,818,818,817,814,817,817,818,819,821,822,824,825,827,826,826,825,825,825,821,822,822,824,825,826,824,828,826,828,827,827,824,823,821,822,823,820,822,820,820,816,816,812,812,810,811,813,816,815,819,817,816,817,816,816,816,815,818,822,826,832,842,855,878,900,921,944,961,976,985,993,1000,1007,1013,1012,1007,995,977,962,944,928,909,893,879,863,854,846,838,830,826,823,819,819,818,821,824,826,830,829,830,828,827,824,825,825,823,825,828,830,834,834,834,834,835,833,831,829,832,833,834,836,838,839,841,839,836,835,833,834,836,838,838,839,841,842,842,841,839,839,838,837,842,844,844,845,847,845,846,847,846,845,845,847,849,850,850,850,849,854,853,854,856,855,852,855,854,855,855,853,858,859,859,857,854,856,853,850,849,851,851,850,852,851,848,846,844,842,837,835,831,833,834,835,836,836,834,832,829,827,823,820,821,819,818,818,821,826,823,824,820,820,818,815,818,817,817,815,815,821,821,821,820,817,815,813,814,814,815,815,817,818,817,815,813,812,810,809,810,807,809,811,811,813,812,809,807,806,807,806,802,803,803,806,808,810,809,810,807,806,805,803,804,802,803,806,806,807,807,807,807,806,805,805,804,803,806,805,809,810,811,810,808,806,805,803,803,802,806,809,811,811,811,811,808,807,808,804,806,807,807,809,812,814,816,814,812,811,812,811,809,811,811,812,814,815,816,815,815,813,812,812,813,813,815,814,816,817,816,816,816,815,813,813,812,814,815,816,818,820,820,818,818,816,816,815,814,815,816,817,818,820,819,820,818,818,816,817,816,816,819,819,822,823,822,824,822,821,818,817,820,817,818,820,823,824,822,822,822,820,817,819,822,823,825,832,833,837,838,837,836,835,831,830,832,832,835,837,835,838,836,837,835,835,833,835,836,835,836,835,835,835,836,831,827,824,822,819,821,822,822,823,826,828,827,828,827,826,825,826,829,830,834,837,844,853,864,878,899,921,941,960,974,986,996,1000,1007,1014,1018,1016,1011,998,984,968,951,931,911,894,880,867,862,856,847,840,833,830,830,834,834,836,838,841,841,841,839,839,835,837,837,838,840,841,845,842,844,844,844,842,841,840,840,838,843,845,848,849,846,847,846,847,845,848,846,847,850,846,849,851,852,850,851,851,848,849,849,851,852,853,854,856,855,855,854,853,855,855,855,856,857,858,862,863,863,863,864,862,861,860,860,863,863,865,867,868,868,867,868,865,861,863,862,862,862,863,864,864,864,862,859,857,853,849,846,847,846,846,847,847,846,843,840,838,834,833,833,832,834,836,836,837,836,837,834,833,832,830,831,830,833,832,835,834,834,833,831,831,831,828,826,828,830,831,831,832,833,831,826,825,823,823,822,825,827,827,830,830,828,825,824,823,823,822,821,820,820,823,824,826,824,825,827,825,824,823,823,826,826,828,830,829,830,830,827,829,824,825,826,827,829,831,832,836,837,836,834,833,832,831,829,831,833,835,837,840,840,838,838,836,834,834,837,836,838,838,840,842,843,844,843,843,842,839,839,841,842,845,846,845,845,844,844,841,841,842,843,845,847,847,847,849,850,849,847,845,845,844,845,846,847,851,851,854,853,853,852,850,849,848,848,848,851,851,854,856,853,853,852,853,852,850,851,849,851,849,853,857,857,857,856,855,854,854,854,855,858,858,859,860,862,860,862,862,862,861,863,868,871,871,872,874,875,876,874,874,872,871,873,872,875,877,878,880,881,883,880,881,878,876,875,876,877,877,878,878,876,877,873,870,870,867,869,871,872,874,877,879,879,876,878,876,878,877,882,889,902,916,938,965,989,1015,1035,1054,1065,1071,1076,1082,1088,1091,1085,1080,1065,1051,1035,1018,996,976,957,938,923,912,905,896,891,887,886,884,883,883,883,885,885,888,889,891,889,890,888,889,888,887,886,885,886,889,889,892,894,892,892,891,889,887,887,886,889,889,892,894,895,894,894,893,893,892,891,890,892,893,894,896,894,897,897,897,896,896,894,893,896,897,899,900,900,901,901,900,902,898,899,900,903,904,906,903,906,906,903,903,901,901,899,901,902,903,905,905,902,903,903,901,899,897,896,895,895,893,893,897,896,893,892,891,885,882,878,877,877,876,876,876,875,872,871,870,869,866,864,862,865,867,868,868,866,867,867,863,861,861,860,862,863,865,865,866,864,864,863,860,860,859,857,858,861,861,863,862,861,861,859,858,856,854,854,853,853,856,857,856,854,851,852,850,848,849,846,848,846,848,849,850,849,850,848,848,848,846,842,844,844,846,846,849,848,847,847,844,845,844,843,844,845,845,847,849,850,850,848,846,847,846,845,845,846,849,848,851,849,848,848,847,847,846,846,846,848,849,849,852,852,850,849,847,844,844,844,846,848,850,849,854,850,851,850,850,846,846,847,848,849,851,853,853,852,854,853,852,851,851,848,848,851,851,854,856,857,856,856,854,851,850,847,847,850,850,854,856,857,853,855,857,854,855,852,849,852,856,858,859,858,856,856,851,849,848,849,851,853,853,852,856,855,857,854,854,854,853,851,853,856,856,859,861,862,863,865,864,866,866,865,865,867,865,868,871,867,866,864,864,861,861,859,861,863,865,868,874,872,869,866,865,859,858,855,851,850,847,850,850,852,852,852,851,851,850,852,852,855,854,857,859,863,863,867,871,882,897,915,939,964,988,1008,1025,1035,1041,1047,1055,1062,1066,1061,1051,1037,1019,1004,987,967,943,925,905,891,880,872,866,864,862,860,862,864,862,861,862,860,859,859,860,863,863,864,866,866,867,868,867,865,866,865,866,865,869,870,873,872,872,872,869,871,871,872,871,873,873,875,879,875,877,876,876,871,872,872,877,876,877,878,881,879,878,876,880,878,877,878,877,877,880,882,886,886,884,884,883,881,879,881,882,885,884,885,888,888,884,885,885,886,882,880,880,881,882,883,884,882,883,881,880,877,875,875,872,871,871,869,869,865,863,861,857,857,854,850,851,850,853,851,850,850,850,851,851,850,849,846,844,847,848,848,851,850,848,848,845,844,842,842,841,842,842,843,842,843,842,841,839,836,837,833,832,832,834,832,834,836,836,835,833,833,829,828,826,830,828,830,831,828,829,829,826,826,825,824,823,825,826,827,831,830,831,827,829,825,825,825,827,828,827,828,830,829,829,828,828,825,827,826,827,829,830,829,833,833,831,831,828,827,828,826,827,830,831,831,835,834,833,831,829,830,830,829,830,830,831,831,834,835,835,835,832,831,830,828,829,829,833,833,835,836,834,834,834,831,831,830,829,830,832,832,838,837,836,835,832,831,830,828,828,833,832,832,834,835,835,833,831,832,831,830,828,834,835,836,838,838,838,837,835,833,833,833,831,833,833,834,839,839,836,838,838,834,833,831,833,836,839,838,842,848,852,851,851,847,844,842,843,844,848,849,850,851,849,850,849,847,846,845,848,849,850,851,851,849,848,844,841,838,833,833,834,833,834,836,838,840,838,840,841,840,839,840,841,842,845,849,852,858,865,877,894,914,936,957,974,989,1006,1015,1022,1028,1037,1043,1041,1030,1017,1000,980,960,940,924,907,893,882,872,864,857,851,844,841,841,844,844,846,847,847,847,844,845,843,842,843,846,846,850,851,854,848,848,849,849,848,847,848,851,853,855,855,857,858,859,856,856,856,854,853,855,859,859,860,858,860,859,857,858,855,855,855,858,861,862,864,863,864,863,861,862,863,863,861,864,865,865,869,869,870,870,869,868,869,870,873,872,871,873,875,873,875,873,873,872,871,872,871,873,871,873,873,873,871,869,866,866,858,856,854,854,854,856,855,855,854,851,848,846,844,843,841,840,841,840,841,840,841,838,838,834,833,832,832,832,835,837,838,836,834,833,831,828,825,829,828,824,827,828,830,828,828,827,826,825,822,821,821,822,823,822,824,824,824,823,819,817,815,816,815,815,817,817,820,821,821,825,819,820,815,815,814,816,817,820,823,824,824,825,824,822,820,821,820,822,825,826,823,828,828,830,828,828,825,824,825,826,826,830,832,832,834,830,830,830,828,828,828,829,831,833,836,836,835,833,833,830,829,830,831,831,834,832,835,837,837,836,835,836,834,835,835,834,835,836,838,840,839,837,837,835,835,833,833,833,837,837,838,840,841,839,840,837,838,837,836,837,839,837,836,839,839,839,838,837,838,838,838,838,838,839,844,844,844,844,842,842,840,839,839,841,842,844,847,847,846,848,848,850,850,846,846,849,851,853,854,857,858,857,856,855,853,853,855,854,857,857,858,859,859,854,856,855,851,852,849,848,850,848,849,849,852,852,849,848,848,848,847,850,853,854,854,854,856,856,857,860,860,863,873,884,900,920,945,969,991,1007,1027,1037,1044,1048,1052,1059,1060,1058,1051,1041,1024,1008,989,971,945,928,910,897,889,882,878,874,871,869,866,866,864,869,869,868,867,869,872,873,872,873,872,869,871,871,870,871,871,870,874,877,877,877,875,872,871,871,871,871,873,877,879,880,879,880,881,878,874,873,876,877,878,881,881,882,881,880,879,880,878,878,876,879,879,883,886,885,886,884,883,882,879,877,880,883
