860,861,858,858,855,856,859,856,860,863,860,860,861,857,858,858,854,853,855,857,859,862,862,859,859,858,855,855,851,855,856,856,858,861,858,859,856,855,851,855,854,853,853,854,855,859,859,857,859,857,853,853,852,852,853,854,853,856,860,858,860,856,855,853,854,853,855,859,858,860,859,859,857,852,849,851,849,851,854,858,859,861,862,858,855,854,851,852,852,851,855,854,854,858,856,856,855,855,853,854,854,854,852,856,857,859,860,857,856,854,855,852,851,851,856,854,856,859,861,857,858,855,855,853,851,851,855,855,856,857,858,859,858,860,857,855,854,852,852,855,858,858,855,856,856,855,855,855,854,855,859,861,866,871,868,871,869,873,873,870,868,870,872,881,886,888,888,892,890,888,886,881,874,870,871,873,873,875,872,868,866,858,854,851,849,847,845,846,852,853,851,849,842,842,842,840,839,840,841,843,846,850,849,848,845,845,841,843,843,842,842,846,850,855,858,869,878,895,917,943,966,990,998,995,964,921,866,810,764,725,700,696,704,727,750,771,791,808,822,827,841,846,848,852,852,849,848,851,855,859,859,861,861,861,859,860,858,858,859,863,864,867,865,865,865,865,866,868,864,864,867,867,870,874,875,875,874,872,871,871,873,874,873,878,883,883,886,885,886,883,886,883,883,884,886,891,896,899,899,901,903,902,908,906,906,909,914,919,921,926,932,938,939,940,944,946,948,953,955,954,963,967,968,972,973,976,977,975,977,977,980,979,981,983,983,984,979,975,968,965,959,952,949,944,940,938,932,926,916,910,904,897,889,883,878,877,875,874,870,866,864,857,854,854,850,852,851,853,852,855,853,853,855,849,848,847,844,846,847,849,850,853,851,852,851,848,846,847,844,843,845,846,850,854,851,850,849,848,846,843,843,842,843,846,848,850,849,849,847,847,843,842,840,840,839,840,841,843,845,845,842,841,843,839,839,841,837,839,841,841,840,838,837,835,837,830,831,833,832,835,837,835,837,833,836,835,831,831,830,829,831,835,835,837,838,837,835,833,830,830,826,824,826,827,828,831,832,833,831,831,830,828,827,828,829,830,829,831,832,831,830,830,823,824,823,824,826,828,826,830,833,832,831,829,825,825,824,825,824,826,826,827,826,826,829,833,830,829,826,825,824,828,829,831,832,830,828,828,825,825,825,824,827,828,829,830,828,833,833,832,828,827,828,827,826,828,833,832,833,833,834,832,832,829,827,828,826,830,831,831,833,832,831,830,825,826,830,829,829,835,836,835,835,834,836,838,835,834,830,830,831,833,838,837,839,840,837,835,834,832,833,834,838,839,842,846,848,850,852,853,856,852,851,853,856,858,865,870,871,871,874,870,871,868,868,865,866,863,864,865,863,863,859,854,846,840,837,833,835,840,840,843,843,842,842,837,835,832,832,834,836,836,839,837,839,835,835,831,837,837,835,838,837,842,845,849,849,853,856,871,887,908,935,965,993,1007,1008,984,945,893,838,785,740,704,693,700,720,743,765,784,794,805,815,829,838,849,852,855,859,856,856,860,860,862,863,865,864,863,863,863,866,869,870,869,873,873,878,874,870,871,872,875,875,876,877,879,882,881,882,882,882,882,881,884,884,886,889,894,893,894,894,893,892,891,894,890,897,900,901,905,907,908,911,912,912,912,914,915,919,924,928,931,934,937,940,940,945,947,950,952,953,958,967,970,974,979,981,981,980,981,980,984,985,991,989,991,990,991,990,983,981,977,973,970,966,965,961,960,955,949,944,937,928,920,914,907,906,902,900,895,894,890,887,881,879,874,871,870,870,873,874,876,875,873,873,865,867,864,865,864,867,866,868,869,869,869,870,867,867,860,863,862,862,865,866,869,869,871,870,869,869,865,864,865,870,867,873,875,873,871,873,867,866,865,863,866,867,869,869,874,874,874,868,868,866,865,859,862,862,864,865,865,868,866,863,862,863,862,855,854,856,860,860,863,862,863,861,858,858,857,854,856,858,858,860,861,860,861,859,856,855,853,854,853,854,856,858,856,858,859,858,857,858,854,853,857,857,859,864,863,863,861,860,859,855,855,855,856,856,859,860,861,862,864,861,858,858,855,855,852,854,860,860,863,860,860,861,861,861,859,859,858,855,856,856,859,859,859,859,859,858,858,856,856,858,862,863,862,864,863,862,860,857,855,854,855,857,859,860,863,865,863,864,862,857,856,857,861,859,858,859,864,865,860,860,859,861,860,859,858,861,860,863,862,864,865,862,862,860,856,854,857,859,860,862,864,866,868,867,863,864,862,859,860,862,861,865,867,867,867,864,866,863,863,863,863,859,864,864,866,867,869,866,861,862,861,863,861,861,866,870,874,875,880,881,880,883,881,876,878,877,883,887,891,894,897,900,898,899,895,893,894,890,887,884,890,889,887,886,879,876,869,866,865,862,866,868,868,869,866,866,862,854,856,856,851,851,852,853,859,861,859,861,860,857,857,854,856,856,858,861,863,866,869,875,889,903,923,947,974,997,1020,1020,1011,985,944,891,840,793,748,720,712,722,747,770,792,810,825,835,844,855,864,867,870,869,871,870,873,871,871,870,871,873,874,874,871,874,878,878,882,881,882,881,880,879,878,877,878,881,882,885,890,889,890,888,885,883,885,884,885,881,886,889,894,895,896,899,898,896,896,894,897,898,899,904,909,912,912,914,913,917,917,920,923,927,933,935,938,943,950,949,948,951,953,956,959,963,971,974,979,984,982,985,985,988,983,985,987,990,991,993,994,995,994,988,987,979,971,964,957,952,948,939,937,931,927,918,910,902,894,887,884,884,881,882,883,879,877,872,870,866,861,860,856,860,861,863,863,865,865,865,863,861,859,857,854,855,859,859,861,860,861,859,860,857,853,854,855,858,857,859,861,862,859,860,863,858,854,855,857,855,857,859,861,860,859,864,863,861,857,855,855,855,855,855,859,857,852,853,851,850,850,847,846,847,846,852,854,854,853,852,850,843,842,841,840,839,842,844,844,850,849,847,848,846,843,840,837,840,844,844,845,847,846,845,843,843,842,840,840,841,842,843,845,848,846,845,842,843,841,840,838,839,840,843,843,846,846,842,842,839,837,835,832,835,838,839,842,844,844,843,844,839,837,839,837,837,839,839,842,845,845,842,843,842,835,836,841,841,846,842,844,845,845,842,841,842,841,839,840,842,841,842,843,846,848,846,843,838,840,839,838,839,842,844,846,844,846,846,843,844,842,842,840,842,842,846,844,846,845,848,846,843,840,839,840,843,843,848,847,847,848,849,847,844,846,843,842,843,844,845,846,845,845,845,849,843,846,843,845,842,845,844,845,851,849,847,846,847,845,848,849,852,854,863,866,867,866,868,865,864,865,868,869,873,876,878,880,883,883,878,875,873,873,871,865,869,868,867,863,859,856,854,850,846,846,845,847,847,847,850,850,846,848,846,841,839,838,840,842,842,845,847,845,849,850,851,851,846,845,845,845,849,853,858,870,881,899,923,946,974,997,1016,1013,992,953,905,851,798,752,714,690,689,709,731,756,777,792,808,820,836,847,856,855,859,858,855,858,856,860,864,870,871,874,875,875,875,876,871,870,871,875,875,879,881,877,880,878,877,878,877,877,884,882,886,888,886,888,893,892,892,890,890,890,891,897,898,901,904,906,903,905,904,903,902,904,911,914,916,919,924,925,931,930,929,931,933,932,941,946,950,955,960,964,965,965,968,970,973,974,978,982,986,990,993,995,996,995,991,990,987,988,987,987,987,986,983,979,974,970,963,957,948,943,938,934,929,927,921,917,909,907,900,894,893,887,886,887,884,883,882,881,879,879,877,874,870,872,874,875,877,875,879,882,879,875,873,873,869,870,869,871,872,875,875,873,872,873,871,870,871,872,873,872,875,877,878,875,876,875,874,874,871,870,870,874,875,878,878,876,877,874,871,871,872,869,868,871,870,872,873,873,871,871,870,866,863,866,867,866,864,868,865,867,866,865,862,861,860,860,859,862,862,865,866,868,866,866,862,860,858,858,858,859,860,861,867,868,865,862,861,860,859,857,856,858,860,860,861,861,861,859,858,857,856,857,856,859,860,863,865,862,861,860,857,857,856,855,854,857,860,860,860,860,864,861,857,862,861,863,858,860,861,860,862,864,862,862,856,859,859,857,855,857,857,861,865,863,862,863,861,859,858,857,860,859,861,862,864,862,861,862,861,860,858,854,856,860,860,861,863,865,863,863,861,856,855,857,856,859,863,861,866,863,865,863,863,858,853,853,857,861,860,862,864,863,863,864,863,862,859,860,858,861,862,863,865,867,864,863,861,862,862,859,863,864,864,866,866,869,869,865,867,864,864,863,865,867,870,876,876,880,882,884,885,883,885,883,885,889,895,899,904,904,902,901,896,895,892,890,887,888,888,891,888,885,881,878,869,865,864,861,860,861,862,866,868,869,865,861,859,857,857,855,856,857,859,863,864,863,867,860,860,858,858,858,860,862,864,868,870,875,879,893,908,928,953,973,1000,1020,1031,1027,1007,972,926,879,833,789,750,725,716,724,738,762,782,799,814,825,836,848,856,867,872,874,877,878,873,872,874,875,873,874,876,876,879,883,888,889,891,889,890,888,888,886,887,885,886,886,886,891,894,893,895,894,894,891,892,892,895,897,901,901,905,902,904,904,904,904,904,905,905,908,911,908,915,917,916,918,916,922,923,923,927,933,937,942,946,949,951,954,955,958,959,960,962,969,974,981,982,984,986,986,991,991,992,991,993,992,994,1002,1007,1001,1003,998,991,991,986,980,974,973,970,969,964,959,950,940,936,927,920,912,910,908,905,903,900,897,893,891,884,884,881,877,875,876,875,878,879,878,874,872,872,870,868,868,867,868,869,875,876,873,872,872,870,872,869,865,865,868,868,870,871,873,873,874,873,870,869,868,869,870,871,872,875,872,870,870,869,868,866,868,866,867,864,869,868,866,865,864,862,860,861,859,858,856,859,861,863,863,862,860,859,856,855,852,850,854,855,855,856,858,854,854,852,851,853,851,848,846,852,850,853,852,851,849,848,847,842,842,844,846,848,849,855,851,850,853,849,850,845,847,846,848,848,850,854,853,852,851,846,850,847,846,841,843,845,848,850,850,848,850,848,843,843,839,844,842,845,848,850,849,846,846,844,844,844,841,839,844,844,847,849,849,848,847,849,847,845,841,843,847,847,847,849,848,844,843,844,843,840,841,839,841,845,848,851,851,850,849,847,843,842,841,839,843,842,845,845,846,846,849,848,848,846,841,844,844,847,848,850,847,848,846,844,842,844,841,844,846,848,848,849,848,848,847,843,843,843,838,839,838,842,845,848,850,847,848,847,848,847,853,855,856,860,864,865,866,866,866,865,864,866,871,875,879,883,882,883,882,877,876,867,869,867,864,862,862,864,861,859,851,847,846,845,842,844,843,836,839,840,839,841,837,841,841,839,838,839,836,835,837,840,838,843,845,846,844,844,847,845,843,844,846,859,868,884,901,923,949,974,995,999,984,955,913,864,813,768,726,695,680,679,697,716,738,754,768,780,794,812,826,838,846,847,850,847,843,841,850,851,854,857,860,863,862,862,860,859,858,857,860,861,867,869,869,871,870,870,869,869,869,867,868,871,871,875,877,874,878,877,876,876,876,877,882,883,884,886,891,890,887,892,890,891,893,894,898,902,906,912,915,917,918,919,922,923,926,926,929,933,939,946,952,956,959,959,960,964,964,965,970,975,979,982,982,984,987,984,984,984,981,982,980,978,974,973,969,961,954,947,940,935,926,923,917,913,909,903,897,894,889,884,879,876,871,868,866,870,865,867,865,868,864,863,861,858,859,858,859,859,862,866,865,864,860,859,854,857,857,857,857,859,861,862,863,864,863,862,859,859,859,860,860,862,863,867,866,866,869,866,858,858,860,860,862,860,863,864,865,863,862,862,857,857,858,856,855,854,855,858,856,855,852,851,849,844,843,842,846,848,852,854,854,852,852,851,848,842,844,842,844,845,847,846,847,846,848,845,845,845,842,843,844,843,843,845,842,845,848,846,845,844,843,843,841,844,849,849,850,848,845,846,844,844,843,839,843,844,843,846,849,850,849,847,848,843,842,844,843,845,847,848,848,849,848,847,846,844,843,843,844,847,847,849,847,849,848,846,844,843,841,842,843,845,848,850,851,850,850,845,846,843,841,844,844,843,845,846,851,849,847,848,845,843,843,843,843,845,846,850,851,848,847,847,846,842,841,841,844,846,847,849,850,850,847,846,845,845,844,843,846,849,851,853,851,855,851,851,846,847,844,844,846,849,850,856,856,857,852,857,857,862,864,868,866,870,871,875,877,880,882,882,882,879,881,880,882,880,880,882,881,877,878,873,875,872,868,866,862,861,854,854,854,856,849,847,844,846,844,847,848,849,850,849,851,846,849,847,845,842,839,844,838,844,849,851,853,854,852,856,852,852,853,858,872,889,911,933,959,984,1005,1015,1016,1002,972,935,889,845,801,761,730,714,713,725,745,764,782,795,808,819,834,846,855,860,861,863,859,856,855,855,858,861,865,865,870,871,872,870,872,872,870,870,874,875,878,878,879,880,880,879,875,876,877,877,881,881,885,889,888,888,887,888,887,888,884,885,886,891,894,895,898,898,903,900,902,902,903,905,908,911,916,915,919,923,925,927,927,929,930,934,939,947,950,956,958,961,964,964,967,967,971,973,975,980,981,989,989,994,991,991,992,992,989,989,989,990,993,989,986,982,975,967,960,953,948,942,937,931,923,923,917,910,906,898,893,885,881,880,880,878,875,879,878,875,873,871,867,868,864,863,864,865,865,868,867,865,867,864,864,862,862,859,860,863,865,868,864,865,867,864,860,858,859,863,862,866,866,869,869,870,868,866,865,862,861,862,862,863,862,866,866,869,867,865,859,862,859,858,855,858,859,858,856,859,858,855,854,853,853,854,853,851,852,855,855,857,853,852,851,847,845,845,846,851,849,852,853,853,850,847,846,843,842,840,841,844,848,848,847,848,845,842,846,843,844,841,843,843,848,848,849,847,846,845,839,841,837,836,836,842,841,844,844,846,847,844,843,841,838,837,842,843,845,845,844,843,846,842,844,843,842,843,843,843,845,847,848,848,845,846,843,838,839,841,842,844,845,847,848,848,848,843,843,842,841,840,843,846,844,846,849,851,850,847,846,844,846,844,843,848,847,847,849,846,847,844,845,839,837,843,844,844,846,850,848,847,846,845,843,841,841,842,842,844,847,849,850,850,851,851,849,847,846,846,846,848,850,852,847,848,848,849,849,847,847,848,849,851,854,857,857,862,862,861,862,864,863,861,866,868,873,879,885,883,886,887,884,881,880,879,876,873,873,873,872,872,870,868,866,859,850,852,850,847,850,852,852,852,851,848,846,840,836,840,840,840,840,846,843,844,842,843,842,840,839,840,841,841,844,849,850,853,852,857,865,875,890,908,931,956,982,1002,1011,1002,975,934,888,837,791,753,719,704,705,717,736,757,776,788,800,809,822,831,841,851,856,858,860,859,860,854,855,855,858,859,861,860,862,866,869,870,871,870,869,869,865,868,868,871,876,879,880,879,879,874,875,870,869,871,872,877,878,883,884,889,887,885,886,882,888,887,886,890,893,896,898,902,903,903,901,903,903,907,911,912,920,923,928,932,932,934,938,941,943,949,952,960,963,969,971,972,974,976,975,978,981,982,984,986,987,990,994,992,988,988,985,976,974,970,964,962,958,954,949,945,937,927,919,911,905,901,899,896,898,893,890,884,880,875,872,864,863,862,862,864,865,866,865,865,862,861,857,851,851,850,852,854,855,858,857,856,854,855,855,852,854,851,854,856,857,856,859,858,856,855,853,852,854,851,849,855,855,857,856,856,855,855,854,850,847,848,851,852,852,854,852,851,850,846,846,847,843,842,844,843,846,847,845,847,847,844,845,839,838,837,837,840,839,840,845,845,844,840,838,833,834,835,833,835,836,835,834,836,836,837,834,830,832,829,831,834,833,836,838,837,836,832,832,830,829,831,836,835,837,838,837,837,837,834,833,834,830,830,832,835,838,838,841,842,842,837,834,834,832,828,829,830,830,836,835,837,835,833,833,830,830,830,832,834,834,836,839
