1045,1043,1043,1048,1050,1053,1055,1060,1064,1067,1070,1068,1070,1071,1075,1079,1082,1082,1081,1078,1080,1088,1091,1088,1085,1087,1088,1092,1092,1095,1094,1094,1098,1097,1095,1092,1090,1089,1092,1094,1094,1092,1086,1084,1085,1081,1075,1074,1071,1072,1072,1069,1064,1058,1054,1051,1050,1052,1049,1043,1037,1033,1026,1025,1024,1019,1015,1018,1017,1018,1011,1004,998,1001,1002,1005,1004,1000,996,997,997,996,997,991,989,989,991,992,991,987,983,985,985,983,985,980,980,982,986,990,985,982,977,979,980,983,988,986,985,985,982,981,983,981,982,983,986,991,985,980,974,977,981,985,984,983,979,977,980,979,981,981,980,980,981,979,978,977,974,976,976,981,984,981,977,976,975,975,977,978,977,977,977,981,976,978,975,976,978,985,982,978,974,972,979,980,979,978,978,979,980,985,984,982,979,975,978,981,983,980,976,982,984,985,984,979,979,981,985,986,989,985,980,981,981,985,984,988,986,989,992,989,985,981,978,982,991,993,993,990,985,984,985,987,988,987,988,991,992,991,987,982,984,986,991,990,993,991,988,987,988,992,996,998,994,999,998,1002,999,999,997,997,994,991,994,989,985,985,991,991,992,989,985,983,984,984,983,980,974,972,973,973,970,968,967,970,970,972,973,970,963,967,968,973,976,983,982,982,984,985,984,984,982,983,984,986,991,992,992,990,992,993,995,997,994,997,1000,1001,997,993,989,991,994,999,1000,995,985,972,961,954,955,960,967,982,994,1005,1011,1013,1014,1020,1036,1064,1091,1125,1148,1160,1161,1150,1133,1104,1073,1048,1033,1021,1015,1009,1006,1007,1007,1012,1012,1005,998,1002,1005,1006,1009,1010,1009,1011,1010,1011,1013,1013,1011,1014,1017,1021,1020,1018,1016,1015,1015,1017,1017,1022,1020,1023,1024,1026,1021,1020,1019,1020,1026,1031,1031,1032,1026,1026,1027,1025,1029,1031,1033,1033,1036,1036,1030,1029,1027,1030,1037,1039,1041,1041,1042,1037,1040,1042,1043,1040,1043,1044,1051,1051,1052,1045,1043,1043,1046,1049,1050,1050,1048,1050,1051,1053,1054,1053,1047,1049,1049,1047,1042,1041,1038,1039,1042,1043,1040,1037,1029,1027,1026,1024,1023,1024,1019,1017,1015,1013,1010,1005,1002,1003,1005,1002,1002,995,994,992,993,995,997,995,992,992,989,987,988,985,983,987,989,989,987,979,977,976,978,983,982,978,977,976,975,972,971,969,969,971,971,975,973,967,966,966,967,967,967,970,968,970,970,969,969,966,964,969,970,972,970,969,969,967,969,971,973,972,971,972,976,974,974,971,969,969,971,974,977,976,973,979,980,981,982,982,984,987,991,984,980,977,973,977,976,980,982,979,976,973,972,970,968,965,965,966,968,968,962,956,948,952,954,958,962,963,958,956,957,955,956,956,957,962,968,971,974,971,970,968,968,971,976,974,974,977,979,980,979,980,979,980,983,985,986,986,982,982,979,978,975,968,963,959,953,946,939,939,942,951,964,976,985,992,1000,1009,1025,1052,1081,1113,1135,1144,1143,1136,1118,1087,1056,1029,1014,1002,997,995,992,994,994,993,993,992,987,987,993,995,999,1001,999,998,1000,1001,998,998,993,995,999,1004,1003,1006,1003,1004,1005,1004,1005,1004,1002,1004,1009,1009,1010,1007,1006,1008,1013,1016,1018,1013,1014,1016,1014,1015,1014,1013,1014,1018,1021,1021,1024,1022,1024,1022,1029,1028,1029,1027,1027,1027,1030,1032,1031,1033,1032,1034,1037,1039,1035,1036,1034,1036,1040,1043,1044,1041,1039,1041,1040,1041,1038,1036,1039,1040,1043,1045,1047,1042,1039,1037,1034,1029,1029,1025,1026,1026,1023,1021,1018,1014,1006,1005,1007,1008,1010,1008,1004,1002,1001,999,994,992,989,990,993,995,994,990,987,984,983,985,987,986,983,984,984,985,981,978,977,978,979,979,980,976,974,977,978,978,978,972,974,974,977,976,976,977,972,974,976,976,975,974,973,972,972,975,979,978,976,977,975,978,977,976,973,976,976,978,983,980,976,976,976,977,978,975,974,978,981,982,983,980,974,978,977,981,982,983,982,982,980,979,976,975,970,974,977,987,987,986,980,983,981,985,990,989,988,986,989,986,985,980,980,978,981,981,983,980,979,979,980,981,980,975,970,971,971,970,970,967,960,959,963,965,964,961,959,954,957,962,965,963,964,970,973,977,978,978,975,974,979,981,982,980,977,979,982,986,984,983,988,991,994,997,994,994,987,986,991,993,992,993,992,993,988,986,985,979,967,961,958,954,956,954,962,971,979,992,1002,1006,1015,1029,1052,1083,1117,1145,1155,1154,1145,1136,1118,1092,1067,1049,1032,1021,1009,1002,997,999,1001,1005,1004,1006,1000,1000,1004,1008,1003,1002,1003,1004,1005,1003,1004,1006,1005,1005,1008,1010,1010,1010,1009,1009,1011,1015,1016,1015,1014,1014,1016,1016,1011,1014,1015,1016,1021,1023,1023,1020,1014,1016,1020,1021,1022,1025,1026,1029,1030,1031,1027,1024,1022,1020,1027,1033,1036,1034,1035,1034,1037,1037,1041,1034,1032,1034,1037,1044,1044,1046,1043,1041,1044,1044,1042,1043,1042,1048,1052,1056,1058,1057,1051,1050,1050,1046,1048,1046,1043,1046,1047,1047,1046,1043,1038,1039,1040,1038,1037,1034,1028,1026,1027,1027,1022,1020,1016,1013,1014,1014,1010,1007,1006,1006,1008,1007,1007,1002,1000,999,998,1000,1000,1000,997,996,998,997,995,993,987,989,991,993,995,993,993,994,995,994,992,987,983,982,981,984,984,986,986,983,986,982,979,976,970,973,975,979,980,980,980,981,979,980,975,969,966,968,974,979,982,980,975,975,973,975,971,972,970,975,978,980,980,978,974,972,972,975,971,973,970,974,978,982,983,978,974,978,977,979,979,977,976,975,979,983,981,977,975,974,976,975,977,977,977,980,982,988,988,985,985,989,989,991,987,987,979,978,979,984,982,980,977,975,978,978,975,973,969,968,974,976,977,974,970,967,964,965,960,959,955,956,959,962,963,962,957,954,956,955,956,956,956,959,963,966,968,966,965,965,968,972,977,977,973,973,978,978,979,980,976,976,979,982,983,982,983,986,988,990,989,984,979,983,983,984,983,981,981,982,983,981,976,971,957,950,946,939,939,943,949,959,971,982,986,991,995,1002,1014,1032,1062,1103,1137,1154,1153,1143,1124,1095,1061,1038,1023,1012,1005,1001,998,994,995,995,993,990,985,988,993,998,1000,1000,999,999,1000,1001,999,994,991,992,998,1005,1008,1009,1007,1001,1001,1003,1005,1003,1003,1010,1013,1015,1012,1011,1009,1006,1008,1010,1008,1010,1011,1012,1013,1016,1014,1013,1012,1014,1018,1019,1018,1021,1018,1022,1019,1021,1018,1020,1019,1024,1030,1034,1034,1031,1028,1029,1034,1034,1034,1036,1033,1036,1036,1038,1039,1040,1038,1040,1040,1043,1044,1040,1038,1039,1043,1049,1048,1045,1044,1044,1042,1043,1045,1043,1040,1040,1038,1037,1031,1025,1019,1017,1018,1016,1015,1014,1012,1010,1009,1007,1001,996,992,992,995,999,1000,997,991,992,989,991,990,987,986,985,990,992,991,989,983,980,980,984,982,984,982,983,982,983,984,977,975,976,979,980,985,984,980,975,978,979,976,977,973,976,977,980,981,978,974,975,977,979,975,974,974,975,977,978,978,978,977,975,974,980,979,975,974,975,978,981,983,979,979,976,981,981,983,980,981,980,982,985,982,981,975,977,977,979,978,980,980,984,985,987,985,982,982,982,989,993,998,998,991,988,989,990,989,987,988,987,990,993,992,985,982,979,977,980,980,978,976,977,976,977,974,969,963,964,966,970,968,969,968,968,970,970,971,969,967,968,972,975,975,977,979,981,985,991,989,986,981,978,983,987,991,991,986,991,992,995,995,993,990,989,991,994,997,997,998,996,996,997,994,991,987,986,987,989,982,970,958,952,951,958,964,973,981,991,1003,1012,1015,1018,1024,1045,1074,1113,1144,1164,1165,1161,1154,1140,1114,1080,1051,1034,1021,1016,1010,1007,1004,1002,1005,1002,1001,998,1000,1000,1003,1010,1011,1007,1004,1002,1001,1005,1005,1002,1003,1005,1009,1012,1012,1007,1008,1007,1009,1011,1011,1011,1009,1010,1010,1017,1017,1018,1014,1011,1015,1016,1017,1016,1017,1017,1019,1019,1020,1020,1017,1016,1017,1019,1020,1020,1023,1022,1025,1031,1029,1027,1024,1025,1026,1029,1030,1028,1030,1034,1037,1038,1038,1034,1033,1031,1035,1041,1040,1043,1039,1039,1042,1039,1040,1040,1037,1040,1043,1047,1048,1046,1043,1040,1039,1038,1037,1033,1032,1030,1030,1027,1024,1019,1016,1011,1011,1013,1011,1009,1007,1008,1004,1006,1002,995,990,990,992,996,998,994,987,986,989,992,992,991,989,984,984,985,984,982,979,981,982,983,983,982,978,976,978,980,978,977,976,973,974,975,974,972,970,966,972,973,974,970,969,966,966,969,971,968,965,964,968,968,968,965,960,960,961,968,968,970,969,969,970,970,969,965,962,962,964,969,968,967,967,965,963,965,965,966,965,969,969,975,975,971,969,968,966,970,972,971,968,966,968,971,975,974,973,977,979,982,982,980,978,976,976,979,980,977,971,967,967,969,973,970,970,966,966,967,965,962,960,962,960,958,961,958,954,950,950,952,953,948,949,950,953,955,956,955,951,952,959,962,965,969,973,973,971,968,963,962,965,966,970,975,977,977,976,973,973,973,975,975,974,976,979,979,979,977,975,972,975,977,976,973,965,961,957,948,941,934,941,948,959,969,976,984,991,996,1005,1022,1051,1081,1118,1138,1144,1137,1120,1094,1061,1037,1023,1012,1001,993,988,986,989,992,989,992,994,989,991,995,991,991,989,991,996,998,1000,998,992,991,993,993,995,996,996,1000,1004,1008,1006,1003,999,999,1001,1003,1008,1008,1008,1006,1007,1007,1007,1007,1003,1003,1011,1016,1014,1013,1012,1011,1012,1016,1017,1017,1018,1018,1022,1022,1022,1020,1022,1022,1026,1032,1030,1030,1030,1031,1033,1035,1035,1033,1036,1033,1039,1040,1039,1038,1037,1035,1035,1039,1039,1037,1039,1037,1038,1038,1035,1035,1034,1026,1028,1027,1024,1023,1018,1018,1016,1014,1012,1011,1006,1002,1002,1003,1001,1000,999,1000,999,1000,998,992,988,985,985,990,988,988,985,982,985,980,981,980,978,981,983,984,985,982,979,976,979,980,982,982,979,977,975,975,975,975,975,977,978,975,973,966,964,965,970,974,973,973,971,971,973,977,976,976,974,976,978,980,983,979,977,979,983,984,982,980,978,978,981,981,984,981,983,983,986,986,982,982,979,978,981,986,987,987,988,982,983,982,981,976,978,980,990,996,996,991,989,990,991,996,995,994,993,989,988,988,985,985,986,987,989,990,985,978,973,969,971,974,975,973,971,969,969,969,968,966,964,962,967,971,970,969,969,967,971,975,979,981,984,984,988,988,984,980,976,980,984,988,988,989,990,989,989,996,992,993,993,992,996,994,993,993,992,991,991,994,986,975,963,949,948,956,964,974,981,984,993,1002,1010,1025,1054,1092,1130,1151,1150,1138,1118,1089,1065,1044,1028,1012,1004,997,995,996,999,1001,1003,1003,1002,1003,997,995,994,997,1000,1006,1005,1004,1001,1000,1002,1003,1002,1002,1000,999,1004,1007,1003,1003,1001,1002,1005,1008,1009,1006,1006,1008,1009,1012,1011,1008,1011,1011,1014,1013,1014,1015,1014,1012,1016,1020,1018,1017,1017,1018,1022,1028,1027,1024,1024,1021,1024,1028,1028,1032,1034,1034,1037,1038,1033,1034,1034,1037,1039,1045,1044,1043,1039,1035,1035,1036,1033,1035,1035,1033,1036,1036,1029,1024,1019,1014,1016,1019,1020,1016,1011,1005,1002,1001,996,999,996,995,996,999,996,987,987,984,985,989,988,986,986,983,982,982,978,976,975,976,977,982,981,978,973,973,975,980,981,975,972,967,970,972,972,968,969,966,967,968,966,964,962,963,967,968,965,963,961,958,959,965,965,961,963,964,964,966,961,956,956,963,968,973,976,970,967,961,959,964,964,966,964,966,968,969,967,964,967,967,970,967,972,968,966,962,963,966,965,966,968,973,979,981,980,978,975,978,979,982,977,972,972,971,970,968,969,970,966,964,966,968,966,963,961,959,958,959,954,955,950,948,951,955,955,952,947,946,952,954,956,954,955,957,961,965,965,964,967,967,971,972,973,975,975,971,972,973,971,972,973,976,981,984,980,979,976,973,975,976,979,980,981,979,980,975,964,949,936,928,934,947,954,962,968,972,976,988,991,1000,1013,1033,1070,1108,1135,1145,1137,1123,1105,1080,1051,1028,1012,998,995,994,989,988,984,984,990,995,995,994,989,988,990,993,992,992,990,988,989,992,993,992,992,987,990,995,993,994,996,995,998,1001,1003,1002,1001,1000,998,1001,997,999,1000,1002,1006,1011,1009,1007,1006,1005,1005,1013,1011,1014,1014,1015,1019,1018,1015,1016,1012,1012,1019,1023,1023,1027,1020,1020,1020,1025,1026,1027,1027,1030,1032,1038,1037,1035,1032,1029,1033,1038,1038,1041,1040,1038,1038,1040,1037,1037,1035,1036,1038,1040,1037,1035,1031,1027,1024,1023,1023,1020,1015,1011,1014,1015,1012,1010,1007,1004,1001,1000,999,996,993,994,995,998,993,991,988,982,986,987,986,987,986,985,987,988,984,981,978,976,979,986,985,981,977,974,974,976,972,973,975,977,980,981,978,978,970,968,970,974,978,978,978,976,975,975,972,970,967,970,974,982,979,978,976,974,975,978,975,975,973,975,976,980,981,977,973,976,977,980,980,978,979,979,979,984,985,980,980,978,983,984,983,984,979,980,981,987,986,985,985,987,992,996,997,996,992,989,988,990,993,989,989,987,985,988,985,980,979,977,982,983,981,979,974,970,969,971,970,972,971,974,977,978,973,969,968,967,971,977,978,981,983,979,983,988,990,990,992,990,990,992,990,989,990,990,993,994,994,998,999,999,1000,1000,1000,1000,998,994,996,999,999,996,994,990,987,977,968,962,962,970,983,997,1006,1012,1019,1021,1034,1054,1085,1127,1160,1177,1176,1165,1156,1138,1107,1076,1052,1037,1024,1016,1014,1011,1008,1012,1008,1006,1003,1004,1007,1014,1015,1015,1013,1011,1011,1010,1007,1009,1008,1011,1015,1015,1016,1015,1012,1010,1014,1017,1018,1020,1022,1019,1020,1022,1021,1020,1016,1014,1019,1021,1020,1019,1022,1024,1023,1026,1024,1019,1023,1026,1029,1034,1032,1030,1029,1027,1029,1032,1032,1032,1029,1029,1033,1036,1036,1037,1037,1038,1041,1044,1044,1042,1040,1041,1039,1046,1045,1047,1045,1045,1045,1047,1046,1047,1046,1046,1051,1054,1052,1048,1046,1041,1040,1039,1039,1037,1034,1036,1038,1038,1029,1026,1020,1017,1016,1015,1015,1014,1016,1012,1011,1008,1004,1001,996,991,995,997,1000,998,995,995,994,993,989,986,984,984,987,991,990,986,983,979,979,984,985,984,980,982,985,985,988,986,980,978,980,983,982,980,975,973,973,975,975,975,973,971,976,976,975,976,974,973,975,976,975,974,969,967,969,972,968,972,970,968,972,975,974,972,971,970,968,970,969,971,972,974,976,978,980,975,972,969,971,975,977,976,979,980,981,977,975,972,969,969,975,977,978,979,976,972,972,975,980,981,983,984,989,995,993,990,984,981,981,981,984,984,984,978,981,980,978,974,971,968,971,971,971,973,969,969,967,967,965,956,956,955,956,957,957,955,953,955,958,960,959,957,958,958,961,968,970,970,969,968,974,975,974,972,968,969,970,976,981,981,979,975,978,979,979,980,981,981,986,989,988,986,980,977,979,981,980,978,975,969,958,950,940,932,932,937,949,966,979,987,994,995,1007,1018,1039,1066,1105,1135,1155,1158,1151,1139,1120,1094,1068,1046,1028,1012,1002,997,995,995,991,991,987,986,988,989,992,994,992,992,994,995,993,992,989,994,995,998,997,1000,998,999,998,998,999,996,1000,999,1003,1006,1005,1004,1005,1006,1006,1005,1004,1003,1001,1003,1006,1012,1011,1011,1009,1004,1005,1009,1012,1014,1015,1016,1019,1019,1022,1019,1017,1017,1018,1021,1023,1029,1029,1027,1032,1033,1031,1028,1026,1031,1035,1038,1037,1038,1034,1035,1034,1037,1034,1041,1041,1037,1040,1041,1038,1035,1032,1030,1032,1035,1033,1028,1023,1018,1014,1016,1013,1012,1007,1005,1005,1003,1003,998,994,990,992,995,995,994,990,990,990,993,991,989,985,981,982,984,981,982,983,981,981,982,982,979,977,978,977,979,978,981,979,976,974,972,969,968,966,970,973,978,979,975,971,969,968,970,967,968,966,968,970,972,973,967,965,964,968,969,972,972,972,971,973,975,973,971,971,971,972,977,976,974,973,971,972,971,973,971,972,972,975,977,980,978,976,975,974,975,978,975,974,974,975,982,984,984,980,984,987,988,991,991,989,990,987,987,988,986,983,980,981,982,983,979,979,978,981,985,980,981,976,971,972,972,970,969,966,968,967,968,968,966,966,963,963,964,969,969,967,965,962,964,963,967,971,975,980,986,985,983,977,980,977,978,982,983,985,987,989,991,991,990,989,989,991,992,996,994,992,992,993,993,990,988,983,978,974,966,956,952,949,954,965,974,983,989,995,1002,1011,1021,1039,1070,1103,1130,1150,1147,1134,1118,1092,1065,1043,1028,1014,1009,1001,1000,1002,1002,1005,1005,1005,1001,1002,1004,1002,1002,1000,1003,1006,1008,1008,1008,1005,1002,1005,1006,1009,1009,1010,1010,1011,1012,1012,1009,1006,1006,1013,1018,1020,1020,1018,1015,1014,1018,1019,1018,1019,1020,1026,1028,1027,1026,1021,1025,1030,1029,1031,1034,1035,1032,1034,1035,1035,1036,1035,1036,1038,1042,1044,1044,1041,1043,1045,1046,1049,1046,1043,1042,1048,1049,1049,1048,1048,1048,1049,1047,1049,1050,1047,1044,1048,1050,1048,1043,1038,1034,1031,1032,1032,1029,1031,1026,1023,1020,1016,1007,1007,1007,1005,1006,1008,1003,1000,996,995,993,993,992,992,995,998,996,998,993,989,988,987,989,993,991,991,993,990,991,988,987,982,983,987,986,987,984,981,979,979,978,983,983,981,981,982,984,982,979
