832,836,836,837,839,839,839,840,843,845,845,846,843,844,846,848,847,847,846,848,851,851,852,849,847,845,845,846,847,851,853,853,856,853,853,850,848,844,843,839,843,841,840,841,841,839,836,835,834,836,838,839,843,845,841,843,841,840,838,838,836,840,844,854,866,882,903,930,957,979,995,1010,1013,1020,1027,1032,1030,1022,1013,1003,983,962,939,918,897,884,869,859,853,850,846,849,849,853,852,851,851,848,845,846,847,849,850,855,854,853,853,854,850,846,846,848,853,854,855,856,857,858,857,856,856,857,857,860,858,860,860,860,860,858,857,858,859,861,860,861,860,861,859,861,861,861,864,865,865,864,865,866,864,863,867,869,869,870,871,871,869,865,865,865,869,867,867,870,870,871,872,872,865,863,862,862,864,867,870,869,868,868,864,864,861,859,854,853,853,854,855,857,856,855,853,848,846,841,838,840,839,844,846,845,844,842,835,834,833,833,835,835,837,836,838,840,837,837,834,835,834,834,837,838,840,840,839,833,829,827,825,827,828,827,828,827,826,827,827,828,827,830,829,826,823,821,820,822,825,826,829,825,824,826,827,826,824,820,819,819,822,824,827,827,828,827,825,825,821,820,817,821,826,828,833,835,834,830,827,824,821,818,822,825,828,833,834,834,832,830,827,826,826,825,824,827,829,828,831,831,832,833,832,831,831,830,830,829,830,829,830,829,831,832,830,833,829,828,826,828,831,832,835,832,834,832,831,829,833,833,835,833,833,829,828,827,832,832,834,833,831,829,827,831,831,835,837,840,837,837,837,833,832,831,833,835,835,835,833,835,837,837,834,832,832,832,832,836,837,841,845,847,850,849,847,845,843,842,842,846,845,846,849,849,849,848,845,846,844,847,846,848,849,848,850,847,842,843,840,835,833,832,831,831,832,835,836,838,836,835,837,835,834,836,838,841,840,840,841,844,847,860,870,885,908,929,951,968,983,994,999,1008,1017,1025,1031,1029,1016,1002,982,964,940,919,903,886,873,865,856,848,844,843,844,845,848,848,851,851,850,846,845,846,844,845,842,845,845,847,848,852,851,853,851,850,847,848,846,846,847,851,853,855,855,855,853,852,850,851,849,850,849,855,856,862,861,861,858,857,854,856,853,855,855,856,858,863,862,863,862,861,859,858,858,860,861,860,864,865,864,866,867,866,863,863,861,858,861,865,866,869,867,867,867,864,863,862,861,860,861,863,863,863,860,859,857,856,856,853,852,850,849,848,849,850,849,847,845,842,838,837,833,834,835,839,838,840,838,837,836,834,830,828,830,830,831,832,832,834,835,833,829,826,826,823,823,822,822,824,827,829,826,824,821,818,817,814,815,815,815,814,816,816,815,817,813,815,814,812,813,815,813,811,812,811,811,812,816,814,814,812,810,811,811,815,816,819,820,818,816,817,817,815,816,815,815,817,817,819,820,820,820,820,817,818,817,817,816,820,819,823,823,827,824,822,820,819,816,818,819,821,824,826,825,824,823,822,819,819,818,819,820,822,823,822,824,825,825,822,821,819,818,821,823,827,829,830,828,826,823,824,823,822,824,825,824,826,826,827,826,829,830,830,826,823,823,823,823,824,827,829,827,826,827,829,832,837,834,835,831,829,823,821,822,824,830,831,830,831,834,837,839,842,845,846,844,845,846,842,840,839,842,840,839,840,841,847,848,848,847,844,842,840,839,839,839,839,840,841,839,837,836,835,832,833,832,834,834,835,834,838,836,837,835,840,837,837,839,844,849,859,875,898,919,942,960,974,981,984,987,993,1002,1011,1022,1024,1020,1007,993,973,952,926,907,888,873,862,856,852,850,843,841,839,839,837,836,838,839,841,842,844,844,846,846,844,845,842,841,840,842,844,848,848,849,851,849,845,843,845,844,844,847,847,849,849,851,851,850,847,845,846,845,845,847,847,852,855,853,852,851,848,850,846,847,847,849,851,850,852,853,850,851,849,849,849,851,850,852,854,854,855,854,856,856,854,852,853,852,850,852,850,856,854,852,854,853,849,847,845,847,841,843,845,847,846,846,843,841,839,837,834,832,832,829,828,827,828,828,827,824,823,820,817,813,813,814,816,817,819,818,818,814,813,811,808,808,808,808,811,809,806,807,807,803,802,801,800,799,802,800,804,804,804,803,803,801,799,797,793,794,795,797,798,798,799,800,798,794,793,793,791,792,794,795,796,797,799,798,798,797,796,795,796,794,797,800,801,801,804,803,803,801,802,800,800,799,799,802,803,803,808,809,808,807,807,808,805,803,803,806,809,808,812,812,812,812,812,810,808,810,811,810,810,811,813,814,814,815,814,814,813,812,810,811,813,813,815,816,819,818,818,815,812,814,814,815,816,820,822,819,822,819,817,816,815,816,816,819,820,820,820,821,823,820,818,817,816,815,816,819,820,824,826,826,827,825,825,824,822,822,820,824,826,827,830,832,834,836,835,835,836,837,838,838,839,842,843,842,843,843,842,841,842,841,842,843,843,843,846,846,847,846,844,843,840,840,839,838,837,838,841,842,842,842,841,841,840,840,840,841,842,841,844,848,848,850,847,848,851,856,866,884,910,936,958,979,994,1006,1010,1012,1017,1024,1030,1036,1033,1028,1019,1006,990,970,947,928,908,892,880,871,864,861,859,857,855,853,854,855,854,850,848,849,853,851,855,854,854,853,850,851,851,851,854,853,853,857,861,861,861,860,858,858,857,855,856,857,862,863,865,864,864,862,864,864,863,863,863,863,862,866,869,869,869,869,870,869,867,867,866,866,869,871,873,873,874,875,872,873,873,869,869,871,875,875,877,877,876,875,875,871,872,869,871,871,870,869,871,872,871,869,865,863,861,858,855,855,857,855,856,852,851,848,844,846,846,842,842,843,841,840,839,840,841,840,838,838,836,832,836,837,836,837,838,840,837,837,836,835,835,832,832,833,834,835,836,836,836,831,830,829,828,828,829,830,831,833,833,832,831,830,828,828,827,826,826,828,829,831,833,829,830,830,832,829,828,828,826,828,827,831,832,833,833,831,832,830,830,829,827,830,830,832,834,833,832,833,833,831,833,832,828,830,834,835,837,835,833,836,834,834,831,832,833,834,834,837,840,841,839,837,837,835,833,832,836,838,840,839,842,841,837,839,838,836,836,835,832,833,837,840,843,844,841,840,840,839,839,838,839,842,841,845,845,843,842,843,842,841,842,841,840,843,843,845,845,847,847,846,845,843,844,842,844,843,846,849,847,851,850,853,852,854,856,854,854,853,855,855,856,858,854,856,856,857,856,857,854,856,855,857,860,862,861,859,856,858,854,852,851,851,851,849,850,849,848,848,848,848,847,848,846,849,851,852,854,857,856,857,856,857,857,862,869,887,909,933,956,979,994,1009,1016,1019,1024,1032,1039,1042,1039,1031,1020,1006,989,968,946,928,910,895,884,881,873,867,864,861,860,863,862,861,860,860,862,863,865,867,868,867,868,866,866,864,864,864,862,862,864,865,868,868,870,870,869,869,868,867,869,871,873,875,875,875,879,876,874,874,873,872,874,874,875,876,878,881,880,876,878,877,879,879,877,879,881,881,884,882,884,883,883,881,880,880,880,880,884,885,889,889,885,886,887,884,884,882,882,881,885,886,887,887,886,884,882,880,876,876,874,874,873,875,873,872,870,869,865,863,860,857,856,856,854,855,855,856,855,853,850,847,847,845,844,845,847,847,845,847,846,844,846,843,843,842,839,841,842,844,844,843,844,842,841,840,839,837,839,839,838,838,842,839,837,837,836,835,832,832,830,829,832,833,835,835,835,835,833,832,833,832,831,829,831,830,831,832,831,830,833,829,832,831,829,830,829,831,834,831,834,831,831,831,829,826,830,832,833,835,838,836,838,835,833,833,832,832,831,832,834,834,838,837,836,837,836,835,834,833,833,832,836,838,839,841,841,840,838,834,835,835,834,834,837,838,841,841,842,839,839,837,836,833,835,836,838,840,843,842,842,840,839,841,839,837,839,839,841,843,844,844,844,844,845,844,842,841,841,844,843,845,847,846,846,846,846,849,849,850,851,854,854,856,856,859,859,861,858,859,856,855,855,853,857,860,861,861,862,860,859,859,857,855,853,853,852,852,853,852,853,850,848,847,846,844,846,847,852,851,852,855,855,859,858,857,860,864,872,885,905,931,958,984,1006,1023,1034,1039,1043,1045,1051,1055,1053,1044,1034,1023,1007,989,972,952,934,914,901,889,880,873,868,864,862,863,858,861,861,859,862,862,865,862,865,867,867,866,864,867,865,865,863,866,866,867,868,870,869,868,868,868,868,867,868,870,869,870,875,874,877,876,874,872,869,870,871,871,872,873,876,876,878,878,876,875,875,873,873,873,876,879,881,883,881,880,879,880,879,878,879,881,881,881,885,883,882,880,881,880,879,878,881,881,882,883,887,886,887,883,882,879,878,876,877,877,877,878,877,876,873,871,870,868,867,863,864,861,860,861,861,859,859,856,855,856,853,850,849,851,849,850,851,851,851,852,848,848,845,847,845,847,850,850,850,852,851,847,846,848,846,844,844,845,846,848,847,847,845,845,843,842,840,839,839,839,841,842,843,843,842,841,839,838,836,835,834,836,838,840,842,841,841,840,835,837,837,834,835,838,837,842,841,843,842,842,840,841,836,836,838,839,840,841,844,845,845,845,845,843,841,840,839,840,841,842,843,844,843,843,842,840,841,840,842,843,843,843,847,845,844,842,842,845,844,843,844,844,845,846,847,846,846,845,843,842,840,838,841,841,844,843,845,846,848,846,844,845,840,839,840,840,843,847,845,844,844,845,842,842,839,839,840,839,842,844,847,847,847,846,845,843,843,842,844,845,845,846,848,850,847,849,846,848,846,847,848,851,857,855,857,861,860,859,857,855,854,855,853,854,855,857,860,860,859,860,857,858,861,858,859,859,858,858,858,857,855,852,849,848,848,846,847,843,845,846,848,851,851,851,847,847,847,846,848,849,853,854,858,863,869,881,898,922,949,973,996,1009,1021,1030,1037,1045,1048,1045,1034,1016,999,981,962,942,927,912,900,889,881,873,865,862,857,856,858,859,863,863,865,866,862,863,862,858,856,858,857,858,861,864,866,867,867,869,866,864,862,862,863,864,864,866,867,869,869,867,865,864,861,862,863,863,863,864,867,867,867,864,866,866,867,865,867,868,866,869,873,873,872,875,872,873,874,874,872,871,874,876,879,880,881,880,880,880,879,877,877,877,879,881,882,883,882,881,880,879,877,878,877,876,875,876,878,876,874,872,871,870,869,868,863,864,864,864,864,864,862,860,855,856,850,851,849,852,852,852,854,852,850,850,847,845,846,844,845,846,847,848,848,848,847,844,845,842,839,836,838,838,841,841,839,840,840,840,840,836,833,832,830,830,832,833,835,834,835,835,835,833,830,829,827,826,831,829,831,831,832,832,832,830,830,825,828,830,831,829,835,835,834,833,835,832,831,830,829,833,833,833,835,838,835,838,836,833,831,829,831,833,834,836,837,840,840,839,839,836,835,832,832,836,836,837,840,839,839,839,836,836,834,831,831,833,834,835,838,840,837,837,835,832,832,833,835,835,836,836,836,837,838,837,837,838,836,833,835,838,837,839,841,842,842,837,841,841,837,838,835,838,839,839,842,842,842,842,842,840,838,836,837,838,837,840,842,846,844,847,849,849,852,850,851,852,851,853,856,854,855,855,854,852,851,851,852,852,850,851,853,856,857,855,856,855,853,849,849,848,847,846,848,847,847,847,846,845,843,843,842,844,846,847,850,852,853,852,851,850,852,853,855,861,875,891,914,940,964,982,997,1009,1013,1017,1022,1030,1038,1041,1035,1023,1006,985,960,937,912,895,883,872,870,865,863,860,859,858,856,856,856,854,855,856,857,859,858,863,864,863,861,861,860,858,859,860,861,864,866,867,868,867,867,865,867,863,867,867,869,870,870,874,874,874,871,872,870,869,868,870,873,871,871,874,874,874,872,872,871,870,871,874,874,874,876,879,877,877,879,876,877,876,877,879,881,882,885,886,885,886,884,882,882,880,878,876,879,881,882,882,882,881,879,877,875,874,868,867,867,869,870,872,869,867,864,862,860,858,854,855,855,854,855,856,855,854,851,848,843,845,843,844,846,847,848,848,849,848,845,843,843,841,839,842,844,846,844,846,844,843,842,839,838,835,835,833,836,837,836,836,836,834,832,830,829,830,830,830,832,832,831,833,832,831,832,827,829,825,829,829,830,831,831,834,833,832,832,832,829,829,830,829,829,830,833,834,834,832,833,832,830,831,829,832,833,835,833,835,834,838,837,833,831,830,833,833,831,833,836,836,835,835,835,835,833,833,833,832,833,834,836,839,839,839,837,836,835,835,834,834,834,833,838,838,837,837,837,838,834,833,832,834,835,837,840,840,841,840,838,837,836,836,836,837,834,839,841,842,841,840,842,837,838,837,838,841,841,841,845,845,843,844,842,844,846,847,850,851,855,856,856,857,856,858,857,855,852,853,854,854,856,855,857,861,861,863,860,861,857,856,854,854,856,854,855,855,852,854,853,851,850,847,846,847,850,851,853,855,859,859,858,859,858,860,864,870,881,899,921,943,964,982,997,1005,1010,1011,1016,1024,1037,1044,1046,1040,1028,1013,996,976,955,933,916,900,888,879,876,870,867,866,863,861,864,863,862,862,863,863,867,868,870,866,867,865,864,861,860,861,867,866,868,872,872,874,871,870,868,869,867,869,871,872,877,878,878,876,874,872,872,874,873,873,874,876,875,876,877,878,877,877,876,876,876,878,879,880,882,882,882,883,883,880,878,880,880,879,881,883,883,885,887,887,887,886,884,883,884,881,884,885,887,889,888,887,887,886,885,881,881,880,879,878,880,880,877,877,874,872,868,867,865,863,864,863,861,863,860,860,856,853,849,849,849,849,849,850,850,852,852,849,848,845,845,844,845,842,844,845,845,845,846,846,844,842,840,837,835,834,836,837,834,837,835,835,834,832,830,827,825,826,827,829,829,830,828,829,826,826,825,823,824,821,823,824,827,829,826,825,825,824,823,823,824,826,826,829,827,829,829,828,829,828,828,827,828,827,826,827,830,832,831,833,831,832,832,827,829,828,830,831,835,837,836,837,835,831,833,831,832,833,832,834,834,838,836,838,836,836,835,836,832,831,832,836,837,840,837,839,840,840,838,838,838,840,841,841,841,842,841,842,841,839,838,840,839,839,841,843,844,847,849,846,845,843,842,842,840,844,843,843,845,846,848,847,844,843,844,843,843,844,843,844,849,851,851,854,854,856,854,855,855,854,855,855,856,858,858,859,859,859,855,855,858,855,857,859,862,863,862,858,857,853,852,849,846,848,849,852,852,855,853,852,853,852,852,851,849,850,852,855,858,862,862,863,866,867,875,888,907,935,962,988,1011,1027,1036,1042,1045,1047,1048,1048,1040,1028,1017,1006,993,980,960,943,926,912,899,886,876,871,865,864,863,865,864,863,865,863,862,862,862,862,865,865,867,870,872,870,872,872,870,870,867,868,870,871,873,875,877,876,872,874,872,872,871,871,873,875,878,879,879,876,875,876,874,876,875,877,875,877,880,881,878,879,878,880,880,878,878,873,878,880,883,886,883,882,883,883,883,884,882,884,885,885,887,888,887,887,886,885,881,880,879,880,880,883,884,883,884,882,880,877,874,872,868,868,868,868,869,868,866,862,861,860,855,855,853,852,854,853,854,853,855,853,852,852,849,847,849,847,847,847,847,847,850,848,847,844,842,841,840,838,839,843,842,844,843,841,841,840,840,839,839,839,837,838,839,842,839,839,836,835,835,835,832,836,838,837,838,839,841,838,839,837,837,836,837,837,839,839,838,842,841,843,841,840,840,839,839,838,840,844,844,846,846,846,845,846,844,844,844,843,845,847,849,851,850,851,849,845,843,843,844,841,843,847,847,850,850,850,849,847,846,845,848,846,849,849,851,854,850,851,848,848,847,850,850,849,850,852,855,856,855,853,856,852,852,850,849,850,849,852,854,856,856,857,854,855,851,852,851,848,854,857,855,860,859,856,859,857,856,856,855,855,855,857,857,857,859,862,861,862,863,866,866,866,866,866,867,870,871,873,871,871,868,868,869,868,870,871,873,876,876,872,874,870,868,864,864,860,861,862,864,867,864,863,863,863,862,862,860,859,861,862,866,871,870,870,874
