1115,1081,1025,962,907,865,840,829,832,837,844,848,852,848,836,824,812,801,798,803,801,801,799,799,802,804,808,808,806,802,797,797,805,803,805,802,802,804,806,805,806,804,801,799,800,800,796,801,808,812,815,813,810,806,806,808,806,807,806,809,812,815,818,818,817,811,811,811,815,815,814,816,818,828,830,826,820,823,821,824,827,824,821,820,825,830,832,829,823,823,822,824,825,829,829,829,829,833,837,835,833,826,826,826,825,827,825,822,823,826,831,832,827,821,820,820,822,818,818,821,823,826,828,824,822,816,817,820,818,816,814,814,817,818,819,817,814,806,809,808,808,804,807,807,810,814,812,808,803,805,807,809,809,807,807,808,808,813,815,814,809,810,810,813,813,812,813,815,817,823,821,818,812,812,814,821,821,823,823,825,829,830,832,828,827,828,831,835,842,844,855,862,867,871,870,869,867,868,869,867,863,859,859,862,860,862,860,855,852,846,843,837,832,826,824,829,831,831,830,826,819,818,820,817,817,811,814,819,821,827,822,820,817,811,809,809,802,790,779,776,781,796,814,840,873,912,954,993,1033,1064,1098,1124,1152,1170,1180,1175,1165,1147,1119,1069,1001,934,877,844,834,836,846,852,859,860,850,836,822,812,809,807,805,808,806,804,804,808,812,813,811,810,813,819,819,820,817,813,813,812,815,815,811,809,807,811,815,819,820,817,811,817,820,823,820,820,819,818,816,820,825,822,820,821,819,823,820,821,821,822,827,833,834,834,833,831,831,832,828,827,825,827,834,835,837,834,833,837,841,844,842,837,838,837,840,847,844,840,841,835,837,838,840,840,838,839,841,847,844,841,834,834,832,837,835,839,838,837,839,844,844,842,838,829,829,831,834,837,834,838,831,836,840,839,838,835,830,827,829,827,829,828,825,827,829,836,835,832,824,824,822,824,821,823,822,826,828,833,829,823,821,824,826,827,827,826,829,829,831,837,835,831,826,825,827,831,833,833,833,829,834,839,844,845,844,839,841,842,844,847,849,850,855,859,866,867,866,866,869,873,880,884,887,882,880,879,880,881,879,875,869,869,867,868,870,866,861,854,847,847,845,844,838,834,834,831,835,832,831,827,828,831,834,829,826,822,824,825,831,830,825,818,812,804,796,788,787,798,822,855,900,944,987,1026,1065,1101,1131,1149,1162,1169,1170,1172,1166,1155,1131,1094,1047,985,925,873,839,826,833,851,866,873,870,861,849,841,832,823,819,815,815,821,822,827,823,819,819,822,823,825,824,819,819,825,829,830,829,827,826,828,829,827,822,820,826,829,831,829,833,830,831,833,834,831,829,826,827,832,840,841,840,838,838,837,837,837,834,834,837,841,846,846,847,844,841,843,845,847,846,842,841,844,848,851,849,846,845,847,848,848,847,845,845,844,849,852,857,852,851,848,849,850,850,846,846,847,851,852,849,847,847,850,846,842,841,841,841,849,842,843,843,844,847,846,839,834,838,837,836,838,835,835,838,838,835,831,827,828,827,829,827,826,828,827,834,834,832,829,826,825,827,828,831,827,831,834,836,838,834,830,828,826,833,831,828,826,830,832,838,840,835,832,829,834,837,835,837,835,840,844,845,846,843,849,853,858,861,862,864,871,880,885,884,881,875,877,879,879,878,871,867,869,869,871,872,870,864,859,855,849,841,834,829,829,835,836,835,833,829,830,829,827,823,822,824,825,829,830,826,823,822,820,812,800,788,782,786,801,828,858,896,936,981,1025,1062,1094,1120,1143,1159,1164,1165,1160,1151,1130,1105,1058,995,925,871,840,827,829,842,849,854,854,848,839,826,818,806,806,805,810,813,816,813,813,817,816,812,809,809,811,813,815,819,814,814,816,818,820,819,816,812,811,813,812,816,812,813,816,820,825,821,818,818,817,818,825,826,827,826,826,829,830,830,825,824,826,827,832,834,834,836,833,839,839,834,832,834,834,839,839,839,835,838,838,839,840,837,834,832,832,837,841,840,838,836,836,838,839,836,831,831,831,831,836,835,834,830,829,830,832,833,829,826,824,828,832,831,831,830,829,829,830,830,826,819,818,822,821,825,824,820,817,820,818,818,814,811,810,810,810,812,810,810,810,811,811,809,806,803,805,808,811,812,811,811,810,810,813,814,812,807,806,807,809,813,818,815,813,813,816,814,816,814,810,812,814,818,822,820,818,816,818,818,818,818,814,814,819,825,829,834,828,826,827,832,835,837,841,842,846,854,863,866,867,862,859,859,860,859,856,849,852,852,854,851,850,844,840,841,837,829,821,818,817,820,820,815,815,812,810,811,813,807,801,801,803,808,813,811,809,806,802,801,800,793,783,772,765,767,778,796,818,846,887,929,970,1006,1042,1075,1106,1134,1153,1166,1162,1156,1147,1132,1108,1071,1020,955,895,850,827,817,819,827,835,836,838,821,812,800,793,794,794,796,795,793,795,795,796,793,792,793,795,798,801,800,799,798,802,801,798,794,793,795,799,803,804,802,800,800,799,804,806,802,800,799,803,808,807,809,809,812,814,814,809,808,808,811,813,818,819,818,816,817,823,820,820,816,815,816,822,824,823,820,824,824,828,827,819,819,820,824,823,825,823,823,824,824,828,822,819,814,815,821,820,817,817,819,822,822,821,813,811,813,816,818,819,819,815,818,819,822,818,813,808,802,808,811,808,810,805,808,808,810,808,802,797,797,800,801,802,796,795,795,804,802,803,797,793,793,794,795,796,793,797,801,802,803,803,799,794,796,799,802,802,803,801,803,808,809,805,802,798,800,807,806,802,804,808,813,813,812,808,808,810,812,808,809,807,810,817,821,820,821,820,812,815,823,824,826,831,835,845,851,857,852,850,851,850,853,849,847,846,843,844,844,844,841,836,837,835,830,828,822,814,815,817,814,814,810,803,803,800,804,799,797,794,801,804,808,808,806,804,797,799,800,797,788,779,768,766,766,773,785,804,834,871,912,953,987,1020,1051,1081,1114,1141,1154,1156,1152,1143,1134,1119,1100,1062,1009,947,892,850,823,811,812,819,832,837,832,826,813,802,798,797,797,790,788,784,786,785,790,790,789,793,794,797,798,793,790,791,792,793,797,796,794,792,799,800,802,801,797,797,801,801,798,799,797,801,805,807,806,802,802,801,805,806,801,801,800,801,812,815,810,808,807,811,810,812,812,812,813,818,822,825,821,818,811,818,819,819,819,817,816,819,826,831,827,824,817,817,817,819,816,816,820,820,821,824,822,815,809,810,813,813,811,811,812,813,817,825,821,819,814,811,815,813,812,811,810,812,816,817,813,807,807,807,811,807,802,801,804,808,810,808,805,801,795,795,798,801,793,795,798,799,799,805,798,798,799,802,803,808,804,804,805,805,810,812,812,809,805,801,808,809,808,807,806,812,810,812,814,812,810,806,806,812,814,810,809,810,816,820,818,814,812,813,814,818,817,819,821,824,827,827,829,827,828,831,836,840,842,844,845,851,858,861,860,855,854,855,859,860,858,854,849,850,849,851,850,845,839,839,832,830,826,821,817,816,817,820,816,810,808,805,807,808,805,804,807,814,817,816,812,807,803,797,800,797,789,780,769,768,774,788,811,841,879,920,966,1008,1046,1081,1116,1144,1163,1178,1181,1174,1159,1139,1110,1064,1003,939,878,843,828,827,833,841,843,847,842,833,818,807,801,800,800,801,800,793,794,794,794,796,792,796,797,803,808,809,809,804,802,799,800,800,801,803,806,811,813,813,808,803,804,804,805,804,805,806,811,812,819,821,817,814,812,814,814,812,813,811,816,820,825,822,818,820,821,823,824,821,821,820,825,831,832,832,831,828,833,831,831,831,828,825,830,834,836,838,832,832,830,837,837,835,832,829,830,834,835,835,833,829,832,833,831,830,828,824,826,831,829,829,828,828,827,826,828,827,823,821,825,831,833,833,830,822,819,820,823,824,819,815,816,820,822,818,814,815,813,820,815,816,812,812,820,825,825,825,822,819,821,822,817,816,810,815,816,819,824,823,821,823,826,826,827,825,822,824,829,832,831,830,826,825,825,825,822,821,817,821,831,840,844,846,842,844,843,844,842,841,842,847,855,864,870,875,873,875,877,879,881,877,873,873,875,873,871,869,864,862,865,868,864,857,850,846,846,845,842,837,834,833,834,833,832,827,821,820,826,830,834,833,834,832,834,834,834,825,821,817,809,803,795,791,789,799,818,851,886,929,965,1003,1038,1077,1104,1132,1151,1164,1171,1174,1172,1162,1141,1112,1073,1020,957,903,862,842,839,847,858,871,869,862,852,850,843,835,831,821,817,817,820,821,818,817,819,824,828,833,831,826,823,824,826,828,830,826,823,825,827,833,833,832,829,827,830,830,830,830,827,827,828,834,835,834,831,826,828,831,837,836,836,836,837,839,843,845,843,843,838,840,842,847,848,848,846,847,849,850,846,846,844,844,844,846,852,850,850,853,856,852,853,849,850,849,851,854,852,849,850,853,852,851,851,848,845,845,848,850,850,846,846,850,852,853,852,850,845,843,844,845,849,847,846,847,849,850,851,848,844,845,844,846,845,846,843,843,845,844,845,840,839,834,835,835,840,843,838,835,834,836,840,838,841,835,833,834,836,841,841,840,836,835,835,840,841,840,837,836,843,847,846,846,844,844,842,846,845,841,840,842,844,849,850,849,846,846,849,851,856,855,851,849,854,858,863,870,871,870,874,879,883,884,883,884,887,890,896,894,894,887,885,883,883,883,878,876,872,877,877,876,872,865,858,853,852,853,848,839,839,842,844,847,845,842,838,837,839,840,840,838,839,842,839,836,830,820,809,798,800,810,829,865,913,961,1007,1043,1078,1107,1136,1157,1172,1176,1174,1171,1160,1152,1137,1107,1060,996,933,882,850,833,835,851,865,872,871,860,849,839,832,831,825,821,820,819,824,827,827,827,826,828,830,831,826,826,821,822,827,829,833,830,830,826,830,830,827,825,824,826,829,830,830,832,834,835,836,835,833,833,834,837,841,841,837,841,843,846,846,842,840,839,840,841,845,845,845,845,847,850,852,846,842,842,843,848,849,849,846,847,849,851,854,849,848,843,843,846,848,853,850,849,851,850,851,845,844,838,841,843,847,847,846,843,844,849,850,844,840,837,840,842,843,843,843,840,842,842,838,838,831,831,831,832,834,834,832,832,830,831,833,829,823,818,819,824,822,824,824,824,824,828,828,825,820,818,815,823,825,828,824,823,825,825,829,829,827,824,825,823,826,827,828,828,827,831,833,835,833,827,822,825,830,836,836,831,831,832,837,838,841,835,834,831,839,844,850,849,852,860,866,870,869,870,872,873,876,877,876,873,872,875,876,871,866,857,859,854,861,860,856,854,847,843,839,838,833,825,823,826,827,830,827,825,822,822,824,827,824,821,819,821,824,827,826,822,814,808,800,792,787,790,803,824,859,901,939,977,1012,1043,1079,1110,1137,1154,1161,1167,1167,1161,1148,1128,1094,1047,979,920,866,830,815,822,837,851,851,849,840,830,821,820,810,804,802,805,807,809,810,811,812,811,811,813,815,812,809,810,814,815,818,817,814,815,815,815,812,812,813,811,813,820,820,816,816,818,819,821,821,817,812,811,814,822,824,826,823,822,825,826,825,828,821,825,826,833,835,835,834,836,837,832,834,829,828,829,834,836,838,837,837,838,840,839,838,835,833,837,838,840,840,838,839,839,841,839,837,832,830,831,834,838,834,832,835,835,834,834,836,831,827,826,830,833,830,833,831,825,831,833,827,823,821,822,823,827,826,822,823,823,823,824,819,816,813,813,815,813,815,816,814,819,819,815,813,812,812,812,816,815,813,818,820,821,822,818,818,819,817,821,822,822,820,821,827,825,825,824,821,822,822,822,824,821,825,828,835,834,837,835,832,829,828,832,836,839,840,846,855,863,865,867,868,865,864,867,868,869,871,870,871,871,866,861,856,856,860,857,851,846,843,839,842,839,832,827,821,822,820,821,817,815,817,819,821,818,820,817,815,814,817,814,811,805,799,798,790,782,783,789,807,833,867,911,951,995,1033,1072,1106,1136,1153,1161,1168,1164,1158,1145,1130,1103,1062,1007,948,890,847,826,823,832,845,850,850,839,833,828,821,810,802,806,806,808,806,803,803,806,812,814,816,817,813,812,811,813,809,807,810,817,816,816,816,816,817,820,820,817,813,810,813,820,822,823,821,818,821,823,821,821,819,819,821,827,827,832,831,828,830,832,827,831,830,828,827,832,838,838,838,835,833,836,837,837,835,832,830,834,838,839,841,839,838,832,839,837,834,829,830,831,835,841,841,838,833,831,833,832,832,827,826,829,832,833,834,830,825,828,829,829,828,824,821,822,827,829,831,831,824,823,822,823,825,820,816,816,814,817,821,822,815,810,808,811,811,811,812,808,809,812,816,816,818,814,811,811,815,813,816,815,815,820,819,822,822,819,815,814,817,821,823,819,822,818,821,828,827,825,823,821,820,826,829,829,830,831,834,837,834,835,830,827,835,840,846,854,854,855,861,865,870,869,866,864,864,865,868,871,870,869,867,867,866,862,859,854,852,853,855,853,848,845,837,837,834,835,831,827,823,816,819,824,829,828,828,825,821,825,825,829,826,820,816,817,820,820,812,797,786,778,778,790,810,838,874,921,972,1016,1053,1086,1117,1143,1161,1175,1179,1179,1173,1163,1148,1127,1090,1036,967,911,867,848,843,843,850,856,864,863,862,849,831,820,812,806,807,806,805,805,810,813,821,822,818,815,812,811,812,813,816,813,812,818,820,825,826,821,815,812,810,813,815,818,819,816,819,820,823,823,818,815,812,813,819,826,826,823,825,826,827,825,824,822,827,828,828,832,829,828,830,829,832,836,835,831,827,829,831,833,837,839,839,839,837,837,839,837,835,834,829,838,844,847,848,846,842,839,838,840,839,835,832,835,837,841,844,846,841,837,836,838,837,834,833,831,835,839,844,847,843,840,833,835,840,838,838,838,838,837,841,840,834,832,833,833,832,831,828,828,832,830,834,830,830,826,826,826,825,822,818,822,829,830,835,833,830,827,826,828,826,822,819,821,831,838,842,840,834,830,829,830,828,829,828,831,832,841,846,848,847,845,840,841,846,843,846,852,859,868,872,873,873,871,868,874,877,883,883,884,884,885,887,887,882,879,876,874,872,868,862,857,854,853,847,843,837,839,840,844,842,838,833,835,838,837,841,835,835,833,837,839,835,829,821,812,805,800,793,790,797,817,845,883,920,957,993,1024,1063,1100,1130,1155,1167,1175,1171,1178,1172,1156,1136,1099,1056,1002,946,894,856,835,837,844,860,867,867,859,852,843,836,830,824,822,819,821,825,824,825,822,828,831,828,827,824,826,830,831,827,824,824,827,831,836,836,834,831,828,830,834,833,826,826,828,830,833,836,835,835,834,835,839,838,837,834,834,836,839,843,843,838,837,836,841,842,844,845,841,843,846,852,850,847,846,845,848,847,852,848,849,853,850,853,856,852,849,851,850,851,850,848,850,852,854,858,854,852,846,846,850,850,847,843,847,850,855,855,854,851,848,846,850,850,848,847,847,850,852,853,852,848,844,844,841,845,845,845,842,839,840,845,848,847,843,839,834,836,835,836,834,832,834,839,840,844,841,839,835,834,837,841,837,840,840,841,846,844,844,841,837,837,838,843,847,846,844,845,849,850,850,850,850,849,852,855,858,857,858,859,862,864,870,873,874,877,881,884,892,892,893,892,893,893,896,895,891,884,881,881,883,885,886,884,876,876,873,868,862,856,852,852,851,854,852,852,848,848,846,849,846,844,843,841,844,851,852,849,847,839,838,831,822,810,802,804,818,844,884,929,976,1025,1072,1110,1139,1160,1174,1180,1185,1179,1169,1157,1142,1122,1088,1036,969,911,866,848,846,856,865,872,876,873,863,851,842,833,827,829,834,835,840,833,835,834,838,838,837,835,833,835,838,840,840,839,838,836,838,841,843,839,837,834,834,842,844,846,844,843,843,842,845,846,842,841,844,846,851,851,850,849,852,853,851,848,847,848,848,853,855,855,857,852,853,857,862,855,855,850,853,857,859,856,854,859,862,862,861,857,855,854,855,862,865,865,861,858,857,860,859,857,851,848,853,856,854,856,854,853,851,855,855,850,842,843,849,855,855,854,855,853,852,854,855,851,845,846,844,846,845,846,845,844,846,846,841,837,834,835,837,839,835,833,833,835,835,834,831,828,823,829,831,834,835,834,835,833,837,837,834,831,830,832,833,838,838,833,833,832,835,835,831,831,831
