826,825,824,824,822,819,821,821,821,823,824,824,826,825,824,823,822,820,822,821,824,826,828,828,829,827,823,825,823,820,819,824,825,827,829,829,828,829,823,824,825,824,825,825,827,826,828,828,827,828,827,825,827,821,826,826,827,829,829,831,829,830,830,827,828,827,827,827,828,830,832,830,832,833,834,832,833,835,833,837,839,843,841,839,843,842,842,841,840,838,838,838,836,838,842,844,843,843,841,841,839,836,836,836,837,839,835,836,834,833,832,829,829,828,829,831,831,833,835,836,836,837,836,836,835,836,836,844,858,869,890,917,944,971,990,1007,1019,1024,1028,1036,1040,1040,1036,1021,1010,994,978,962,943,925,908,892,879,869,862,856,847,840,839,837,837,837,837,841,840,841,843,842,842,840,844,842,843,840,843,840,842,843,847,847,845,847,846,845,845,843,845,847,849,847,851,852,853,852,850,848,847,844,844,844,847,847,850,852,855,852,851,853,851,850,850,852,853,853,857,858,856,857,858,855,857,856,856,857,860,863,863,862,866,862,863,861,860,860,862,859,861,864,866,865,864,863,860,860,856,856,855,854,852,853,853,852,848,847,843,844,842,840,839,838,837,837,838,836,833,832,828,826,824,823,823,821,821,823,824,825,824,821,820,816,814,814,815,814,816,817,818,817,815,814,812,815,811,809,810,809,809,809,811,813,811,812,810,807,804,805,804,805,808,809,809,807,806,805,804,801,798,800,800,802,802,802,803,804,803,803,802,801,799,799,801,800,801,803,803,806,805,802,803,801,801,803,803,803,806,803,806,809,808,805,805,803,802,802,803,802,801,801,805,805,808,806,804,805,803,802,804,805,808,807,812,813,812,812,809,808,808,807,808,808,807,809,810,810,813,812,811,813,811,809,809,809,812,814,812,815,815,812,811,810,807,807,807,807,809,811,813,814,815,814,812,811,811,808,809,808,812,812,814,813,813,816,815,814,814,812,815,815,815,818,820,821,822,821,818,817,815,814,816,815,818,820,823,821,822,822,823,827,824,826,830,831,831,829,830,834,834,830,832,831,830,829,829,829,830,831,831,833,831,830,827,829,826,824,820,819,820,817,817,818,816,813,812,811,809,812,813,814,816,813,815,814,814,815,812,816,815,815,815,821,831,846,864,886,914,940,960,976,987,994,1003,1009,1015,1015,1006,996,979,961,938,914,889,871,857,845,835,826,816,808,801,797,792,793,793,794,791,790,789,788,791,793,793,792,792,790,789,791,790,785,786,787,788,793,792,791,790,789,784,783,785,791,792,795,797,797,795,795,795,793,789,791,790,792,790,793,793,794,796,799,796,795,794,793,791,794,796,798,799,801,802,802,802,800,799,797,796,796,795,798,799,799,797,798,796,794,793,791,790,789,790,789,792,791,790,785,782,780,779,779,775,774,774,771,769,770,768,766,763,759,755,752,752,748,749,748,750,747,745,745,740,739,738,732,731,729,729,728,729,730,729,727,724,720,720,713,712,714,716,717,719,720,719,715,715,713,711,708,707,707,710,711,713,712,709,706,703,700,700,699,701,699,699,699,700,699,698,698,695,693,693,691,689,691,694,697,697,700,701,700,696,696,690,687,687,686,686,687,691,690,692,691,690,692,691,688,687,684,687,687,692,691,694,690,687,686,684,686,685,685,686,685,688,689,691,691,690,688,682,682,686,688,689,688,690,692,692,692,691,689,687,687,685,685,689,690,694,695,691,692,687,687,687,689,689,693,691,689,690,691,689,688,689,690,690,691,689,690,692,691,690,693,691,691,692,692,688,689,687,687,687,685,689,689,689,686,686,687,687,687,690,691,689,690,693,693,695,693,689,691,693,694,695,695,696,695,696,699,696,693,695,692,691,693,691,690,691,690,689,691,689,686,685,679,681,680,682,685,686,684,683,682,681,678,678,680,679,679,681,684,685,685,688,697,703,716,729,749,766,789,811,828,844,852,858,860,856,846,831,818,804,789,775,761,745,731,716,704,696,687,682,678,680,679,678,678,681,683,687,688,690,687,686,683,682,682,684,684,684,686,687,690,691,690,690,687,684,687,687,690,694,694,694,692,691,692,694,694,692,690,689,694,696,697,698,699,698,699,698,696,696,694,694,697,699,703,705,707,706,705,703,703,700,701,702,705,705,708,710,712,712,711,710,708,709,709,709,709,712,714,715,717,718,714,710,709,708,709,712,711,714,711,710,708,707,709,708,706,704,701,699,699,700,698,701,701,698,696,692,689,688,687,689,689,689,693,693,694,693,691,692,690,693,693,691,691,692,691,692,695,694,691,690,689,690,687,689,692,693,697,700,698,698,701,699,697,693,694,692,690,692,695,697,700,701,702,703,701,701,697,700,700,701,701,704,708,707,709,706,704,701,698,702,702,706,707,708,708,707,706,705,706,707,709,710,711,712,711,712,713,714,713,712,711,709,712,711,712,713,714,718,719,719,719,717,717,717,712,717,717,717,719,723,725,724,722,721,716,717,717,715,715,717,719,721,723,724,725,727,726,721,722,719,719,719,724,727,725,727,728,725,723,723,721,723,725,725,727,727,728,727,727,727,726,727,724,726,727,729,731,734,736,736,733,734,732,730,729,727,728,729,732,735,739,739,737,738,738,741,741,743,747,746,747,747,749,752,753,753,751,748,748,747,745,747,748,755,758,758,756,755,752,752,748,751,749,751,750,747,750,750,748,747,746,743,743,745,748,750,752,756,756,752,754,753,754,755,758,764,771,778,787,802,821,837,855,871,887,897,904,910,913,916,921,926,920,910,899,885,868,849,832,815,801,786,779,774,772,770,768,768,768,768,767,766,766,768,771,772,775,774,773,772,772,770,769,771,773,774,775,777,777,778,779,779,778,780,779,780,780,780,783,784,785,785,786,786,785,785,787,787,788,791,790,792,793,790,791,790,792,792,791,789,792,794,796,799,802,802,801,802,802,799,798,798,799,801,803,807,810,810,807,812,810,810,808,811,810,810,810,814,815,813,815,814,810,811,807,807,808,810,812,812,813,811,810,809,805,802,803,800,798,799,798,798,799,797,799,799,798,795,791,789,787,790,790,792,793,793,793,792,793,791,790,791,789,792,793,794,796,791,795,791,793,791,790,790,792,792,792,791,792,792,790,791,788,788,789,789,788,787,787,789,792,794,792,793,789,785,784,783,783,787,788,792,792,794,794,792,792,788,784,784,787,785,794,795,797,798,797,796,792,790,787,790,791,794,795,796,796,796,795,795,795,794,795,792,794,792,792,794,796,799,799,799,798,797,795,795,795,794,794,794,798,801,801,804,802,801,802,798,799,799,800,801,804,802,800,801,802,803,802,804,803,801,802,805,806,804,805,802,801,799,799,800,802,803,805,805,807,810,810,810,808,805,804,801,802,803,806,807,810,812,811,812,809,808,808,806,808,808,812,814,816,814,810,812,810,811,814,816,814,816,817,817,817,819,823,823,827,829,828,826,827,825,828,831,834,835,832,832,831,832,830,831,828,830,834,833,831,834,833,833,831,829,829,827,826,826,826,827,828,828,831,829,828,825,826,829,830,832,834,836,839,840,842,847,854,863,878,895,910,932,953,973,992,1002,1005,1010,1014,1015,1016,1006,995,984,971,954,944,924,907,891,877,861,851,844,841,840,842,846,850,851,849,852,850,848,848,847,845,848,848,850,854,856,857,857,857,856,855,853,854,856,858,857,859,861,864,864,862,860,857,856,856,859,865,869,871,871,871,867,864,861,862,865,866,869,870,872,876,876,879,878,876,876,875,873,876,876,880,879,881,880,881,881,881,884,883,883,885,885,886,884,889,889,891,887,887,886,887,883,882,880,886,883,887,888,885,882,879,881,880,877,875,875,875,873,875,875,874,873,870,867,864,863,863,863,864,865,867,867,867,867,867,867,865,862,860,861,863,865,868,869,867,865,863,862,860,863,864,866,863,862,867,866,865,865,865,864,864,862,860,861,861,862,864,861,863,861,861,862,861,856,860,862,860,861,863,862,865,864,860,861,862,862,863,861,864,864,865,866,869,868,866,864,862,861,862,863,864,865,867,869,871,868,865,864,866,864,865,865,867,867,870,870,870,869,868,867,868,868,867,868,873,872,875,873,871,871,871,871,868,871,870,873,872,871,873,875,875,874,873,872,870,871,871,873,873,874,876,878,876,878,875,875,871,870,867,870,874,874,878,880,881,880,881,882,878,877,880,881,881,883,885,884,883,882,880,880,880,885,889,892,894,891,890,891,892,892,892,895,896,896,899,901,906,908,911,910,910,908,910,909,913,911,913,914,917,916,917,919,921,926,925,925,923,922,920,921,918,917,921,921,921,924,920,918,918,918,919,920,922,924,929,932,932,932,932,931,932,933,940,944,949,957,968,983,1002,1021,1043,1063,1081,1097,1108,1115,1121,1128,1135,1142,1140,1136,1125,1116,1101,1085,1069,1051,1036,1020,1003,990,980,969,963,958,960,959,961,961,965,968,969,967,969,969,969,967,966,966,967,966,971,970,975,973,977,974,972,971,974,973,976,977,979,981,982,984,982,983,981,979,980,982,983,984,988,988,990,989,989,988,989,989,986,986,987,987,991,992,994,995,994,994,994,995,996,995,995,997,1000,1003,1002,1003,1001,1004,1002,1003,1001,1005,1004,1005,1007,1006,1006,1009,1009,1011,1007,1005,1005,1004,1007,1007,1008,1008,1009,1009,1006,1006,1004,1001,999,997,995,994,996,995,994,996,994,990,990,988,988,987,986,987,987,987,989,989,988,989,987,986,984,985,986,985,986,984,988,988,987,987,987,985,982,981,982,981,985,985,988,988,989,986,983,979,977,978,978,979,980,980,980,980,980,979,977,978,976,977,978,979,980,980,981,982,980,982,981,981,980,984,983,984,982,985,988,987,991,990,990,990,986,987,988,988,990,992,994,994,995,995,992,992,989,989,989,991,993,994,995,997,996,995,993,994,992,993,992,994,994,996,998,997,997,999,998,995,996,995,994,994,993,995,999,1000,998,999,996,995,993,993,991,991,992,994,1000,1000,1002,1001,999,999,996,995,994,996,997,998,1001,1002,1002,1000,999,994,998,997,996,999,999,999,1000,1002,1003,1003,1000,999,998,997,997,999,1002,1001,1003,1003,1002,1000,1000,1004,1004,1008,1010,1009,1013,1013,1013,1014,1012,1010,1010,1008,1009,1008,1008,1008,1010,1011,1012,1014,1014,1012,1011,1009,1005,1004,1003,1003,1002,1001,999,1002,1001,1002,999,997,995,996,994,992,996,998,1000,998,1003,1003,1002,1003,1003,1005,1007,1013,1027,1043,1061,1083,1100,1123,1137,1147,1153,1160,1167,1177,1185,1190,1187,1177,1163,1149,1135,1117,1099,1081,1063,1048,1038,1030,1022,1015,1008,1001,1001,1001,1000,1001,1001,1001,1002,1001,1004,1003,1004,1004,1004,1004,1003,1002,1002,1001,1004,1004,1008,1008,1009,1009,1008,1004,1003,1004,1004,1004,1005,1009,1008,1009,1008,1009,1012,1012,1009,1007,1007,1010,1011,1012,1014,1016,1014,1014,1013,1011,1012,1011,1011,1012,1011,1014,1017,1016,1018,1018,1016,1016,1016,1012,1013,1016,1014,1018,1022,1020,1021,1021,1019,1017,1016,1016,1017,1017,1019,1018,1021,1017,1019,1019,1018,1017,1015,1017,1014,1017,1014,1014,1014,1016,1013,1014,1011,1010,1006,1003,1002,1003,1001,1001,1002,1001,1001,999,997,996,990,988,987,986,989,989,989,990,989,985,986,983,980,977,977,976,977,976,979,975,978,976,973,974,971,967,968,965,964,971,971,972,968,967,967,962,963,961,960,961,959,960,961,959,958,959,957,955,956,953,953,953,954,955,954,954,956,956,953,952,952,950,951,948,952,950,953,954,954,950,952,953,952,950,951,951,952,954,955,958,957,957,955,953,949,948,948,948,950,952,953,952,953,951,952,951,948,947,946,945,947,949,949,948,949,950,949,948,946,946,944,945,946,947,949,952,950,950,950,949,946,944,942,946,947,949,949,951,950,950,948,948,943,943,943,944,946,946,949,948,947,946,946,942,944,943,943,944,943,946,945,948,948,946,945,944,943,942,942,944,943,947,948,947,947,946,945,945,941,941,942,945,947,951,955,955,958,958,956,951,953,952,952,953,954,954,955,954,956,956,955,956,954,950,951,951,948,951,950,949,949,946,945,941,941,937,936,937,936,940,941,942,942,943,944,941,939,941,941,941,945,950,956,961,974,990,1010,1029,1047,1060,1074,1080,1088,1097,1108,1120,1124,1124,1114,1100,1084,1066,1049,1029,1014,999,987,979,972,965,956,950,946,941,940,943,944,947,948,949,949,946,947,946,946,946,945,946,945,947,948,946,951,950,949,949,948,946,947,947,950,952,951,954,953,953,954,951,950,949,950,950,952,953,955,955,956,955,954,953,951,951,950,951,951,952,956,957,957,956,955,955,954,954,953,955,956,956,959,959,960,961,960,960,957,958,957,957,959,963,963,963,963,962,961,958,957,954,955,954,955,957,955,955,954,951,949,946,946,945,943,940,940,937,938,940,938,937,933,930,926,925,922,923,924,922,923,923,923,920,918,915,913,910,911,912,912,913,912,913,909,909,908,906,901,900,899,900,901,903,904,906,905,903,900,898,898,896,895,895,896,898,897,896,897,895,892,890,888,887,887,889,890,891,894,895,895,896,895,891,891,891,888,890,891,891,896,896,896,896,895,894,892,892,891,893,893,896,897,897,896,897,893,891,893,892,892,893,893,894,895,897,896,898,897,894,894,895,891,894,895,896,897,897,897,896,896,896,893,894,892,893,892,895,896,897,899,897,895,894,892,893,894,893,893,896,898,897,898,896,895,894,891,891,893,891,892,893,893,894,895,893,892,893,892,892,890,892,893,892,894,896,895,898,897,896,894,893,891,894,894,895,895,897,898,898,896,893,892,893,894,894,900,901,905,907,911,910,908,906,903,903,904,904,904,905,905,906,906,905,904,903,904,901,901,901,900,898,899,899,898,895,891,888,887,885,883,884,887,887,889,890,890,888,887,888,886,889,887,889,891,892,898,904,915,927,942,962,979,994,1009,1018,1024,1029,1036,1047,1054,1055,1049,1036,1023,1005,988,970,952,939,927,921,915,909,899,895,888,886,884,884,883,884,892,895,890,890,889,888,888,887,886,888,888,891,893,897,895,894,893,891,891,892,890,890,893,893,894,896,896,896,894,894,894,896,893,893,894,895,897,898,898,899,897,892,893,896,895,895,897,898,896,900,897,897,897,896,895,897,897,896,896,899,899,902,903,903,901,900,900,901,901,902,903,905,906,905,907,906,906,904,902,900,898,899,902,901,899,902,898,899,895,896,891,889,887,884,887,883,883,881,880,879,877,872,872,870,868,867,867,867,867,868,866,864,861,861,860,858,855,856,854,853,854,856,855,854,854,852,851,849,848,846,850,851,849,853,851,851,848,847,846,843,842,841,842,843,845,845,844,843,842,843,843,840,839,840,842,844,848,845,847,846,846,843,841,844,841,842,845,847,847,850,850,849,848,843,842,845,843,844,847,848,850,853,853,852,852,850,849,849,846,847,849,851,852,852,852,853,853,851,849,849,846,846,849,852,852,855,856,854,854,852,849,850,849,850,849,854,855,856,854,853,853,849,848,850,850,849,851,851,851,850,854,855,854,851,852,851,850,849,851,853,854,854,856,852,854,851,853,852,853,851,850,851,854,854,856,854,855,851,853,852,852,852,853,853,854,857,857,859,856,855,855,856,856,857,858,865,864,868,868,866,867,865,865,864,863,864,866,867,866,869,868,868,865,865,865,864,864,861,860,863,862,865,861,858,855,851,852,852,851,851,853,855,854,855,856,853,853,855,855,857,856,858,859,863,869,877,885,901,918,938,960,979,995,1007,1017,1024,1031,1035,1038,1037,1030,1018,1008,993,975,958,943,929,915,908,898,887,879,873,865,860,859,859,861,862,865,868,867,867,865,865,864,863,862,862,865,865,868,869,871,870,870,867,867,868,867,868,866,869,869,871,871,871,873,871,868,869,866,869,870,872,872,872,874,874,873,872,871,869,868,871,869,873,872,878,876,877,878,872,874,873,873,873,877,876,879,880,882,882,881,878,880,879,878,877,879,881,883,883,883,884,883,881,880,877,878,878,879,876,879,878,877,877,872,868,869,867,865,862,864,863,863,862,858,856,854,850,846,845,846,844,843,844,841,843,843,841,839,836,834,832,832,831,833,834,835,837,835,834,833,830,828,827,827,827,829,830,830,832,832,830,829,830,827,826,827,825,827,828,829,833,832,832,830,829,826,826,827,827,827,827,830,832,830,827,829,824,825,828,827,825,829,828,831,832,832,832,832,830,829,829,827,824,827,831,833,834,834,834,834,831,831,829,827,828,827,831,832
