835,839,835,831,831,829,824,827,831,833,836,837,835,836,835,834,833,831,829,831,832,832,837,837,838,834,834,833,831,831,830,829,830,833,833,835,838,837,835,835,835,832,832,835,837,839,842,843,844,849,849,849,848,848,848,848,849,855,858,864,868,870,867,870,870,864,866,860,861,861,864,864,861,857,853,848,845,839,835,835,834,835,835,838,840,840,835,836,831,828,828,828,828,831,831,834,832,831,832,834,832,829,830,832,835,836,837,839,841,843,840,843,854,866,884,908,935,963,990,1007,1007,981,937,886,824,769,719,684,666,666,685,711,734,750,767,777,785,790,808,821,832,840,845,845,845,843,841,841,842,841,843,844,850,851,854,855,853,854,854,854,850,850,850,851,854,857,859,862,863,861,857,859,857,856,859,858,863,865,868,869,872,869,869,869,865,865,870,872,875,875,879,880,886,886,886,887,885,885,887,893,895,897,898,908,910,914,915,918,920,919,924,928,930,935,941,945,947,954,955,956,957,956,957,962,967,970,975,975,973,976,977,976,972,969,972,971,969,968,967,967,963,960,956,947,942,935,928,919,921,917,914,907,901,898,892,885,880,876,871,870,867,865,866,865,862,859,856,855,854,853,847,847,849,850,855,855,855,852,850,849,846,847,845,849,849,850,852,852,853,853,853,850,851,847,849,848,847,848,852,852,854,854,851,850,848,848,846,850,850,854,852,856,855,852,851,850,846,845,845,847,846,848,850,850,844,846,848,842,839,843,842,843,843,842,844,846,843,844,840,840,838,835,834,834,837,839,839,841,839,840,835,832,832,832,830,831,832,835,835,839,839,836,837,836,834,831,829,830,830,833,834,835,835,835,833,832,832,831,830,831,830,833,834,837,834,834,832,832,831,827,828,828,830,831,831,836,835,837,835,834,831,827,828,827,830,831,835,837,836,837,831,833,831,829,830,831,832,834,835,834,836,835,834,831,830,829,827,833,833,836,838,835,835,833,831,830,830,830,829,826,833,834,834,835,836,838,836,837,832,832,833,834,835,837,838,838,839,837,837,838,835,835,835,836,835,836,840,845,842,847,847,848,847,851,852,853,854,856,857,862,869,874,873,875,873,873,867,866,868,866,864,861,858,858,858,855,852,846,842,840,841,839,839,839,840,837,835,833,831,829,828,830,830,833,835,837,839,837,836,834,829,831,828,829,835,837,840,839,839,843,845,854,863,879,904,933,962,990,1012,1021,1012,980,938,889,831,780,736,704,694,698,719,742,762,784,796,811,818,829,832,839,845,845,844,846,847,848,852,853,850,851,853,853,852,856,861,862,861,861,861,863,860,861,864,860,860,863,866,872,872,874,871,870,868,864,867,868,870,872,877,880,880,880,881,882,884,878,879,880,882,886,889,895,896,897,896,897,897,899,902,904,907,912,917,921,925,928,929,933,930,935,939,941,947,950,960,965,968,970,970,974,972,972,979,980,985,984,986,988,990,986,984,980,977,972,968,964,959,957,950,947,942,936,926,918,910,902,896,895,889,888,888,885,880,876,871,867,864,858,856,854,852,854,855,858,856,853,852,854,852,849,846,847,848,847,850,853,850,849,850,847,849,846,845,848,847,846,850,854,854,850,848,849,847,847,846,846,847,851,852,856,855,855,852,852,850,847,842,845,845,846,849,850,851,851,849,845,845,844,842,841,840,841,844,845,842,843,841,837,836,835,837,834,837,837,839,843,838,837,836,833,833,830,828,830,832,832,834,837,835,835,836,834,834,833,833,827,831,830,830,834,831,834,833,833,830,830,831,831,828,829,834,835,831,834,832,828,828,829,827,826,827,830,832,836,835,833,829,826,828,827,826,828,828,831,833,834,832,832,832,831,831,828,827,826,827,829,833,834,831,832,831,827,826,827,827,825,829,833,835,834,830,832,828,830,826,826,828,824,826,827,831,832,832,831,831,830,824,826,824,828,828,830,832,833,836,835,833,832,831,829,830,829,830,832,834,837,832,838,837,835,838,838,841,842,845,849,849,852,855,854,856,856,858,860,860,864,867,864,867,869,870,866,860,857,852,852,848,848,848,844,841,840,836,832,833,829,828,829,828,828,826,828,831,831,830,826,825,824,824,822,821,823,825,828,827,833,830,830,832,835,833,840,843,856,875,898,925,952,976,990,987,967,927,880,823,771,728,693,672,669,680,703,724,742,756,772,786,798,813,827,834,841,842,841,839,838,837,836,835,837,840,844,847,850,849,851,850,848,850,847,850,851,851,853,857,859,860,861,856,855,854,852,849,854,857,858,860,865,867,865,865,866,863,864,863,864,864,867,869,870,875,872,878,874,876,878,879,885,887,891,894,899,899,904,903,904,907,911,911,916,924,929,937,939,943,948,949,951,950,951,955,958,963,970,973,980,975,976,982,982,980,979,977,977,982,978,979,978,974,969,967,960,953,945,936,931,928,921,915,910,903,897,890,883,877,872,867,862,862,860,859,858,856,856,852,844,849,844,839,842,843,847,845,847,847,846,842,841,839,839,839,838,840,839,840,843,844,846,845,841,842,836,835,836,840,844,843,847,847,846,844,842,835,839,836,841,840,844,842,846,843,840,843,843,842,841,838,835,838,838,841,840,840,841,839,834,833,833,831,830,831,833,834,837,837,839,835,837,833,832,830,830,833,832,831,833,833,828,827,827,827,824,824,826,827,830,832,833,831,833,830,829,826,825,824,825,825,827,829,831,831,830,831,830,829,827,828,826,828,830,829,832,834,831,831,828,828,828,826,827,832,831,831,834,834,834,834,832,829,829,826,826,828,827,829,830,832,832,832,831,829,830,828,827,831,833,834,836,836,836,835,836,833,830,826,830,832,832,835,834,835,837,834,834,831,830,827,828,831,833,837,839,842,839,839,836,834,832,830,830,832,835,835,838,837,836,837,836,836,836,836,835,837,838,838,839,838,842,841,840,840,841,839,839,847,850,857,861,861,860,861,860,861,860,862,863,864,868,870,871,871,866,862,859,856,854,850,849,849,847,843,842,842,841,838,836,838,835,834,834,837,838,837,835,836,834,833,834,827,826,829,832,830,831,833,838,838,840,842,840,839,838,843,852,864,882,906,939,968,993,1014,1016,996,958,906,846,795,747,708,691,694,710,731,754,773,786,796,809,820,831,842,847,850,851,849,847,845,844,845,847,849,852,855,859,860,861,859,858,854,853,855,858,858,863,868,867,866,868,867,865,866,865,866,866,870,871,873,876,877,878,880,878,877,878,880,880,884,885,888,892,890,895,895,895,896,894,899,902,905,907,911,913,918,920,922,925,928,932,936,940,944,951,955,962,966,968,970,973,973,976,977,978,982,985,991,992,995,999,998,998,997,996,992,992,991,990,990,987,982,974,972,960,954,946,938,935,928,923,919,916,909,904,896,886,883,879,873,870,868,870,872,874,870,868,865,861,857,855,855,855,853,856,860,861,861,861,858,856,858,854,856,851,853,860,859,862,862,862,863,861,860,857,855,856,858,861,862,866,866,866,865,863,860,858,855,855,859,862,865,864,865,865,865,862,860,859,855,857,854,858,860,860,856,858,855,853,851,850,848,851,852,855,855,854,856,855,851,850,849,846,847,846,848,849,850,853,855,854,853,852,852,847,845,843,846,849,851,853,851,852,853,851,850,849,848,849,852,852,851,852,854,852,854,851,848,847,848,848,852,852,852,855,857,857,856,851,849,849,847,846,845,848,848,850,852,852,855,853,850,850,849,850,849,853,850,853,856,855,850,848,851,849,849,848,850,855,857,856,856,856,855,855,850,854,852,851,854,854,852,856,857,857,856,857,850,853,852,853,853,854,855,855,854,854,854,853,854,849,851,849,851,856,857,857,861,858,859,856,855,854,850,853,856,856,858,860,859,861,860,861,859,856,854,854,857,860,860,861,860,862,864,859,861,856,856,857,858,858,860,862,867,864,861,863,863,866,864,870,872,879,879,887,890,889,884,883,886,886,891,893,896,897,898,901,902,900,896,893,886,886,880,881,884,883,879,879,874,873,869,866,865,862,861,857,860,864,867,865,863,861,858,855,854,851,852,854,854,860,863,865,864,866,865,866,862,863,862,872,881,900,922,952,985,1011,1028,1023,1001,954,903,845,790,750,723,718,734,755,780,802,818,833,845,857,864,873,872,876,879,878,876,876,876,874,871,871,875,880,884,884,887,889,888,888,885,885,884,885,883,887,887,889,892,890,891,890,889,889,888,891,889,891,892,895,900,899,901,900,899,898,898,901,905,908,913,915,917,919,918,921,920,918,921,921,928,931,938,942,946,950,952,958,959,964,965,965,973,977,982,988,990,992,994,997,997,998,998,1000,1004,1006,1005,1012,1014,1008,1007,1006,1002,1000,993,990,984,981,976,971,967,959,953,946,936,930,919,914,913,907,904,901,900,897,896,891,888,884,883,881,879,876,879,880,880,879,879,876,877,872,870,869,873,870,874,877,875,874,874,871,869,869,865,868,865,870,872,873,875,877,875,874,870,872,871,873,872,875,874,873,875,875,879,874,873,871,867,864,866,873,871,875,877,874,871,872,870,863,863,863,861,862,864,867,865,865,865,861,864,861,861,860,858,858,858,862,859,861,859,856,859,855,853,854,852,857,857,860,857,855,860,856,854,854,850,852,851,851,850,852,858,858,857,856,853,852,852,846,850,854,848,853,853,854,852,852,854,853,852,852,852,855,855,859,858,857,857,852,852,847,849,850,851,853,856,854,855,853,853,851,853,852,849,850,849,853,848,852,856,856,857,855,853,848,848,850,850,849,849,853,857,855,853,851,847,847,844,849,851,851,850,854,854,855,854,853,851,850,850,850,848,849,853,857,856,856,857,854,853,852,849,851,848,852,852,849,852,848,849,847,848,848,850,850,851,853,854,856,857,855,856,854,853,848,843,846,848,850,851,854,856,856,855,853,851,846,848,850,847,848,852,855,855,857,861,861,865,865,867,868,868,868,869,873,876,879,882,879,880,878,877,878,878,880,878,878,875,878,872,871,868,862,857,853,852,850,852,855,853,852,851,852,850,846,846,842,841,843,846,850,848,851,850,848,849,847,846,849,850,850,854,854,858,857,856,861,871,878,896,916,947,978,1005,1017,1012,985,937,876,815,760,714,687,681,692,716,742,768,785,798,812,824,836,846,850,854,858,860,861,861,861,863,861,860,862,863,864,868,869,872,873,877,874,877,874,872,875,874,875,875,878,876,879,884,883,882,881,880,879,877,884,887,891,893,889,890,893,894,895,895,894,896,898,901,901,910,908,911,913,917,919,917,916,917,921,926,930,938,939,944,950,953,956,956,956,962,965,969,972,977,986,988,990,991,991,991,991,992,993,989,993,995,998,1000,997,997,993,989,981,977,972,968,964,959,957,950,947,941,934,927,917,913,908,903,900,901,898,896,892,887,884,883,880,877,876,877,877,875,881,879,879,875,877,874,872,872,870,873,873,874,876,875,876,874,875,871,872,871,871,871,871,872,877,874,877,879,876,875,873,874,875,873,875,876,878,878,881,879,875,872,874,873,872,873,875,878,878,878,879,877,875,871,870,869,868,867,869,868,870,873,872,872,868,869,862,862,863,863,864,866,865,866,868,868,864,863,863,863,863,863,859,865,864,869,868,863,865,861,860,856,855,855,861,859,860,864,865,865,862,858,858,857,856,857,858,860,859,863,862,862,862,863,861,858,856,856,855,859,856,861,858,860,859,858,858,859,859,859,860,862,866,867,867,867,864,864,857,859,858,860,861,862,866,866,867,866,862,863,859,859,855,858,859,859,864,862,864,862,863,862,859,859,858,860,860,860,863,865,867,866,865,860,857,858,859,859,861,864,864,864,865,864,864,866,859,859,857,856,862,862,863,865,866,866,864,863,862,861,859,860,861,864,864,865,866,867,864,862,861,861,861,863,866,866,868,871,872,872,869,869,867,861,866,869,872,880,881,883,883,888,884,887,887,888,893,896,898,900,903,901,900,900,895,889,888,884,882,884,885,883,878,876,872,871,866,861,863,862,862,863,866,866,866,866,865,860,860,859,857,858,856,856,857,859,859,859,860,860,859,858,858,857,860,860,867,879,894,917,943,968,996,1017,1023,1014,986,945,898,849,806,767,740,729,732,750,767,787,803,815,829,839,853,863,867,874,874,872,868,865,865,867,871,873,875,877,882,878,880,879,875,874,875,877,878,881,881,886,887,887,888,885,884,883,882,883,887,890,890,891,892,890,892,892,891,892,892,892,896,898,899,902,901,901,906,905,904,903,905,908,911,917,919,924,925,928,928,930,930,932,935,938,946,951,959,963,965,971,967,968,968,972,978,981,985,987,991,995,995,997,998,996,997,998,996,997,997,998,998,995,992,988,982,974,967,962,954,949,943,943,936,934,928,921,917,911,903,897,895,893,894,886,885,887,884,882,882,880,877,875,871,870,870,871,875,875,874,871,871,869,865,865,865,867,870,869,871,870,872,873,871,866,865,865,867,869,869,870,872,876,873,876,876,874,872,871,869,870,869,872,875,874,872,877,874,869,865,864,864,867,869,871,870,874,874,872,871,868,862,863,860,858,863,862,864,865,866,865,866,863,860,857,854,853,857,855,859,861,861,860,857,856,857,855,855,852,857,857,858,860,859,859,858,855,854,850,851,852,852,855,858,861,856,858,859,857,856,853,853,852,854,855,857,858,857,855,853,855,856,853,852,853,854,856,858,859,858,857,858,851,850,851,848,849,851,852,855,858,858,853,854,854,851,850,849,849,849,851,851,857,856,855,854,855,852,853,853,853,851,852,854,858,857,854,854,854,850,847,847,848,848,854,856,860,859,856,854,847,847,849,847,849,850,849,855,854,856,852,852,850,853,851,849,851,853,854,855,854,856,852,854,854,851,852,850,849,850,855,858,860,860,857,856,855,854,852,850,850,852,855,857,861,857,856,857,855,854,854,849,853,853,856,857,862,862,864,866,868,862,868,866,868,870,877,877,884,887,887,889,887,882,881,880,878,878,877,874,876,874,875,872,863,859,857,852,851,847,851,851,855,853,852,852,849,847,847,847,845,843,843,844,852,848,847,847,843,847,844,841,841,847,848,851,854,858,855,858,862,868,880,896,919,944,970,990,1002,1000,973,937,887,834,787,740,707,688,689,704,727,749,766,782,791,804,816,825,839,847,856,858,860,859,857,858,858,855,858,862,863,864,865,866,866,868,866,867,866,865,870,866,864,872,874,876,880,879,880,879,878,876,876,876,878,878,881,881,883,884,887,891,888,889,890,889,888,889,891,897,900,901,904,905,905,905,906,905,907,914,919,918,924,926,927,933,931,933,936,940,943,951,956,960,967,971,976,974,978,979,983,983,983,983,988,993,996,998,998,1002,994,996,995,989,986,983,980,974,972,966,959,952,943,937,931,923,920,913,910,908,904,899,897,889,885,880,875,871,869,869,867,872,876,873,871,869,866,868,865,861,862,861,865,867,872,871,869,869,867,866,866,863,864,866,869,872,874,873,869,869,867,865,863,865,863,864,866,871,869,870,870,867,864,865,866,863,859,859,862,863,868,867,865,867,863,862,858,858,857,860,862,864,862,865,863,864,858,857,858,856,857,857,859,859,859,862,859,858,855,850,852,849,850,848,850,851,856,856,855,855,853,852,853,851,849,850,846,851,852,855,854,855,854,854,850,849,847,848,853,853,855,855,858,854,852,851,849,846,849,852,854,857,860,864,864,860,860,857,856,853,854,854,856,858,860,859,861,860,857,858,854,852,853,852,858,860,860,859,859,856,854,857,855,852,852,854,856,858,861,860,859,862,859,859,855,855,854,857,856,861,864,863,863,864,861,858,859,858,858,859,857,860,861,863,862,862,860,858,857,856,856,858,858,862,863,863,860,859,860,858,857,855,856,854,860,863,866,866,865,865,867,865,862,859,859,860,863,864,866,867,868,868,867,868,872,872,872,876,881,883,886,888,887,887,891,887,892,889,888,891,890,893,893,889,888,885,882,881,875,870,870,866,865,867,865,864,866,864,860,859,861,859,858,858,855,858,858,857,860,858,856,856,853,853,854,857,858,857,861,863,865,865,862,863,861,865,875,890,910,934,965,993,1015,1030,1035,1019,991,945,895,845,799,753,725,715,719,739,761,782,802,810,828,839,853,861
