758,752,748,748,743,739,742,740,743,743,747,748,750,752,749,748,747,745,743,748,749,753,756,756,756,755,753,750,755,756,762,767,774,778,781,779,782,779,776,772,772,778,781,786,789,795,799,799,796,790,792,789,784,780,779,778,779,782,782,782,776,770,762,756,751,748,746,747,748,747,753,752,750,749,748,750,750,751,755,754,754,754,755,756,759,764,779,803,843,899,966,1043,1123,1206,1288,1359,1418,1461,1478,1461,1393,1265,1137,1009,881,753,668,713,772,813,834,828,814,786,767,759,759,761,764,767,767,764,761,762,762,763,765,768,769,768,772,773,777,779,778,776,774,773,771,775,779,782,786,788,790,793,794,795,794,797,797,800,802,807,816,822,825,829,828,833,832,836,844,848,857,864,871,880,883,890,893,898,903,908,910,916,923,927,930,933,936,932,931,928,924,920,920,917,918,910,901,889,880,865,848,838,828,823,811,809,805,801,801,797,793,791,785,782,778,775,772,771,773,773,773,771,773,773,770,773,772,772,771,772,770,772,773,778,778,779,775,772,773,772,774,776,779,781,782,778,781,780,777,775,774,772,774,775,775,779,781,782,782,779,776,776,771,772,771,768,773,773,778,777,774,773,770,769,768,767,768,769,769,768,768,767,767,767,764,764,761,760,759,760,763,765,769,772,771,770,767,765,764,761,762,764,764,764,765,768,771,769,768,769,767,770,774,778,784,789,793,790,789,781,779,780,780,782,787,793,797,802,807,808,806,802,797,795,792,790,791,793,794,791,789,787,779,773,766,756,754,748,748,747,750,753,756,759,757,759,759,758,756,755,748,747,750,750,756,761,771,785,809,847,900,968,1048,1137,1231,1321,1402,1464,1500,1507,1484,1425,1322,1194,1066,938,810,682,690,741,795,830,842,834,811,792,769,760,759,764,767,771,775,773,772,770,767,765,767,765,768,768,773,776,778,778,781,781,781,779,779,781,787,789,789,793,796,795,795,796,797,799,803,807,812,815,819,826,831,834,838,844,843,845,845,853,857,865,874,883,889,898,900,905,908,909,916,920,925,936,940,942,942,941,940,938,934,931,924,920,911,905,900,892,883,872,858,842,833,824,814,811,808,803,801,799,797,794,791,788,781,783,781,779,783,780,782,782,779,779,777,778,777,774,773,773,777,779,784,787,787,784,782,777,776,781,782,782,784,785,786,787,789,787,784,788,783,784,781,782,781,782,783,787,787,787,786,782,781,780,780,779,775,775,775,778,778,781,777,775,772,771,771,774,777,777,778,780,777,772,773,768,767,766,766,764,765,767,769,772,778,775,773,769,767,764,762,763,765,767,770,769,770,771,773,777,781,782,784,783,782,784,786,789,790,790,792,788,790,793,796,803,802,803,805,804,804,802,795,791,788,786,783,780,778,773,770,769,763,760,755,752,748,748,748,750,751,755,758,759,760,756,754,752,753,750,751,754,757,767,784,807,837,880,938,1010,1094,1190,1291,1381,1452,1487,1485,1439,1332,1204,1076,948,820,692,682,734,787,824,836,828,809,786,772,761,760,761,762,765,765,765,762,759,754,755,757,759,758,761,761,765,767,773,773,776,777,778,777,776,776,775,778,778,786,790,794,794,797,796,798,802,803,802,800,804,810,816,819,832,835,841,844,846,849,856,862,867,875,880,886,892,898,903,905,908,908,909,909,909,910,914,915,918,917,915,907,901,894,885,873,862,856,847,839,840,832,825,815,805,796,788,782,774,772,767,766,767,764,764,763,761,758,758,754,753,751,753,754,755,755,754,751,750,752,748,749,749,751,755,756,759,760,761,760,760,755,756,754,752,758,755,763,763,762,762,757,754,750,749,747,748,749,751,756,758,760,761,757,754,749,745,743,744,748,748,748,748,746,745,738,737,737,740,739,740,740,743,743,746,744,743,739,737,732,729,728,730,735,740,743,745,745,739,733,729,726,728,726,728,729,728,732,739,741,747,748,748,751,748,748,744,743,749,750,754,755,755,758,759,761,765,767,769,769,766,764,765,764,761,758,758,757,757,753,752,749,745,742,739,734,729,730,727,728,730,730,729,730,732,734,736,737,737,735,732,733,733,735,738,757,780,814,863,922,991,1069,1153,1241,1324,1394,1437,1446,1409,1317,1189,1061,933,805,677,626,662,718,765,793,801,793,783,768,758,751,750,750,753,754,755,759,759,758,761,762,761,761,763,762,765,767,767,770,773,777,780,780,784,784,782,785,786,784,791,791,796,799,804,806,808,807,807,808,811,816,817,826,834,839,846,850,853,857,861,868,875,879,883,893,897,901,910,915,916,919,920,919,920,917,917,921,925,925,924,919,912,901,890,880,870,861,854,848,843,834,832,824,819,810,804,797,792,787,782,780,780,782,787,789,786,781,779,776,776,772,773,776,778,780,783,784,784,782,781,783,781,780,784,786,789,789,792,788,789,790,786,786,790,790,790,795,796,796,798,799,797,795,792,790,788,784,781,784,785,788,790,793,791,787,785,783,778,774,779,784,786,785,787,783,782,778,780,783,778,782,780,785,785,786,785,787,787,783,781,778,778,773,773,775,777,782,785,786,784,780,777,777,774,773,775,781,785,793,803,806,807,804,800,800,799,799,800,801,807,814,819,819,822,823,819,817,815,810,813,813,812,815,816,812,808,804,799,793,789,783,776,771,771,774,779,779,784,784,782,779,777,775,774,775,778,775,780,782,783,789,800,818,850,896,959,1037,1120,1208,1301,1386,1455,1497,1508,1478,1396,1268,1140,1012,884,756,696,745,803,851,865,861,841,818,797,786,789,790,797,804,803,802,797,795,789,788,786,786,791,799,802,804,802,805,807,804,806,806,801,803,809,812,818,821,823,823,824,823,820,824,828,833,839,846,850,853,849,850,850,853,857,864,870,880,888,891,899,905,909,915,918,921,927,928,934,939,938,949,955,960,963,964,961,954,950,945,940,934,935,928,919,911,901,890,881,871,863,855,847,841,835,831,830,824,821,815,811,809,805,804,802,806,806,806,806,804,802,801,800,798,800,796,798,800,802,802,806,808,806,805,805,803,805,804,806,805,810,810,811,813,809,813,811,810,810,811,813,812,813,815,813,810,811,806,802,803,801,803,805,806,807,805,808,809,808,810,805,800,797,797,796,801,800,800,802,804,804,800,798,800,798,795,797,797,795,794,796,798,798,798,797,794,792,793,793,798,799,802,802,805,802,801,802,801,802,804,811,815,820,818,819,819,819,819,820,823,822,825,831,833,833,836,834,831,827,828,828,828,821,820,820,820,820,814,809,806,801,795,790,787,783,782,778,778,783,790,792,797,797,792,788,784,781,780,777,777,783,789,798,815,840,874,927,992,1071,1150,1232,1320,1398,1462,1498,1510,1487,1421,1304,1176,1048,920,792,708,742,795,840,864,864,851,832,809,797,790,788,792,796,794,794,793,791,787,783,784,786,787,789,789,792,796,801,800,797,800,798,798,796,796,798,801,804,808,810,815,817,817,818,815,818,821,822,829,828,829,830,837,844,845,848,853,857,859,863,865,873,877,889,893,898,903,902,906,909,918,925,931,935,940,943,942,945,946,947,948,944,944,939,937,935,932,925,922,912,902,887,879,867,861,850,845,835,831,824,819,814,805,794,788,785,785,785,783,787,789,790,790,790,786,780,778,775,775,773,772,778,781,781,782,784,784,784,782,779,781,778,779,783,784,787,788,783,785,779,775,776,778,779,781,785,785,791,792,792,791,786,782,777,775,773,774,776,778,780,785,783,782,780,778,772,773,767,767,772,776,775,779,778,770,771,772,771,771,769,768,771,769,771,774,773,772,771,770,770,768,764,765,765,771,777,781,779,778,778,781,778,781,784,783,784,789,788,790,793,797,796,796,798,800,804,805,809,808,810,812,810,804,796,792,788,790,792,792,793,790,788,784,776,775,766,760,756,754,758,760,756,761,760,763,767,770,771,769,765,763,759,760,764,772,789,813,845,893,960,1033,1119,1211,1307,1391,1454,1487,1475,1417,1301,1173,1045,917,789,661,681,737,787,822,830,827,815,797,783,770,765,767,767,769,771,771,772,774,774,771,771,774,774,774,774,776,776,780,779,785,786,787,786,790,788,791,792,793,798,802,805,808,811,813,814,816,814,819,821,825,830,833,836,844,850,848,859,856,864,867,870,875,881,891,895,902,909,912,914,919,922,923,928,932,933,936,935,935,932,931,929,925,918,913,901,894,891,885,879,873,864,853,844,835,825,815,807,803,801,797,799,798,796,795,794,793,792,789,789,789,789,788,785,788,783,788,786,785,787,788,783,790,790,796,798,802,801,802,798,795,793,796,794,797,801,799,801,799,800,800,803,800,801,799,798,796,798,800,799,804,806,805,801,798,793,795,795,797,797,799,801,799,797,797,798,794,791,788,789,786,787,791,792,795,794,795,795,791,790,785,783,787,788,792,793,794,794,796,795,793,792,786,785,783,788,791,794,795,794,794,796,794,793,794,796,801,809,811,822,824,826,826,819,819,817,814,818,818,826,834,836,840,842,836,832,827,825,822,819,820,820,822,822,820,815,806,799,792,793,785,783,783,786,791,794,796,795,793,792,790,791,791,791,791,793,796,802,812,830,861,909,975,1054,1144,1243,1340,1424,1485,1518,1514,1466,1358,1230,1102,974,846,718,743,798,845,869,865,855,834,815,803,799,797,797,800,802,799,805,808,808,811,807,805,808,808,807,806,806,811,810,817,818,819,822,820,820,821,822,827,828,830,835,842,843,846,845,847,846,849,854,859,864,870,875,883,890,893,896,899,902,905,911,921,930,941,949,957,957,957,956,957,957,957,961,962,965,970,970,966,961,956,944,930,918,911,897,887,881,874,868,865,857,848,843,833,831,827,822,819,817,817,815,817,812,811,811,808,806,802,803,802,803,806,808,814,813,813,809,809,806,805,805,805,810,812,814,815,814,816,817,813,811,808,810,810,812,813,818,821,821,822,820,816,812,810,809,810,810,812,812,814,815,814,811,810,806,806,805,804,803,810,812,813,812,808,806,803,797,797,797,795,799,797,800,806,808,808,808,804,800,800,798,796,794,800,802,804,803,805,802,802,803,804,801,800,804,807,815,823,826,824,825,818,819,819,819,820,823,827,830,838,843,841,845,843,838,836,832,829,830,831,834,834,836,832,827,817,812,805,796,793,790,791,792,798,797,796,793,788,790,787,784,782,788,790,792,796,794,795,793,790,794,804,820,848,885,936,997,1069,1145,1225,1304,1378,1438,1479,1495,1490,1456,1383,1262,1134,1006,878,750,724,766,821,859,874,870,850,828,811,801,798,801,803,804,804,800,801,799,801,803,809,807,808,810,806,805,808,804,808,811,812,815,819,820,820,818,821,820,820,822,828,830,837,841,843,845,846,849,851,854,856,860,862,865,871,877,889,899,904,910,915,919,920,920,922,927,931,939,946,953,959,962,964,963,960,960,955,955,954,948,946,937,928,916,906,895,886,877,869,862,854,845,842,836,830,823,815,808,805,798,798,797,799,800,800,803,802,799,796,792,787,785,784,789,790,790,792,793,793,793,794,793,793,794,796,799,801,801,802,797,796,795,797,798,798,797,795,795,795,798,801,803,803,798,795,797,792,789,788,792,794,796,795,793,796,794,793,791,789,785,783,783,784,784,787,788,787,787,784,785,785,783,778,780,783,783,787,786,781,781,776,774,779,778,777,780,780,782,781,786,789,790,788,785,788,789,787,791,794,798,804,803,803,806,806,806,807,809,806,809,810,807,807,808,803,803,802,801,798,797,793,793,790,787,785,780,772,768,764,763,764,766,766,768,769,772,771,773,769,770,769,767,766,761,763,770,786,802,824,862,909,969,1042,1124,1211,1303,1388,1455,1491,1486,1437,1325,1197,1069,941,813,688,713,763,810,842,848,843,824,806,790,781,779,778,778,780,781,779,780,783,785,785,784,784,784,786,783,785,788,793,793,800,800,802,804,802,799,799,800,802,806,813,817,823,824,827,827,827,827,828,831,834,839,844,847,852,858,861,868,871,876,882,886,893,899,906,913,920,922,927,928,932,930,930,930,933,933,935,938,936,934,930,923,919,912,904,894,884,877,868,857,855,845,838,826,821,811,808,799,795,793,794,790,790,787,787,782,777,772,770,770,770,769,771,772,776,779,777,777,775,771,771,771,772,771,780,780,780,780,780,780,777,776,775,775,776,777,781,781,784,785,784,783,782,778,775,774,776,777,780,779,780,778,776,777,774,776,773,768,768,771,774,773,773,774,776,772,771,770,768,767,767,767,770,769,771,770,771,772,771,771,770,768,763,764,765,770,772,772,773,769,769,766,766,762,765,764,769,778,781,787,786,789,787,788,786,791,792,789,796,797,800,804,807,807,809,809,813,813,811,809,812,813,812,813,813,812,812,808,805,800,798,791,787,782,778,778,776,775,778,779,778,780,780,782,780,781,779,782,785,780,778,777,778,777,780,790,806,830,864,912,977,1052,1139,1231,1321,1404,1470,1506,1516,1498,1450,1353,1225,1097,969,841,713,699,738,794,836,857,858,844,826,806,796,790,790,794,798,798,798,801,804,803,799,794,798,795,793,796,796,800,806,809,812,813,815,815,818,817,814,816,816,818,822,825,830,832,833,833,835,836,841,848,849,852,857,863,869,873,876,880,882,885,891,899,902,910,917,922,927,931,939,942,943,946,946,948,955,956,960,960,963,966,966,963,959,958,952,945,937,925,920,910,899,892,882,873,862,853,847,838,838,834,830,828,829,826,823,819,816,814,811,808,807,804,803,802,808,811,813,809,809,807,802,803,799,802,806,808,812,814,815,814,814,812,809,807,807,810,814,820,824,822,822,822,818,819,818,815,813,816,814,817,820,824,826,824,820,816,810,805,808,807,811,813,814,818,817,817,816,811,808,806,803,802,803,807,811,808,809,806,805,802,804,805,805,804,807,806,808,809,808,807,805,806,801,800,800,802,806,805,804,808,807,807,809,806,806,806,806,806,812,817,824,831,832,833,830,827,825,828,825,827,828,827,833,837,848,850,847,844,839,836,835,835,832,833,837,842,840,835,828,819,812,807,801,798,796,796,801,802,803,803,801,799,797,792,795,797,801,803,799,798,799,801,807,816,828,856,895,955,1032,1117,1215,1316,1405,1473,1515,1525,1501,1438,1318,1190,1062,934,806,704,739,797,852,881,886,871,848,823,810,806,808,812,811,814,813,809,807,807,806,806,808,812,815,817,820,816,820,820,821,819,819,821,823,828,828,828,830,832,835,833,833,836,839,840,847,848,848,855,860,860,861,864,867,874,881,888,892,900,907,912,918,920,924,931,936,942,944,952,959,965,975,978,982,982,982,979,972,966,958,956,953,952,945,937,928,919,907,894,879,873,863,854,852,846,843,843,837,834,830,825,821,818,811,812,811,811,811,817,817,812,808,808,807,803,802,805,806,809,810,813,813,814,812,810,811,813,812,816,816,815,815,816,818,818,818,818,818,816,816,815,816,822,823,822,820,817,816,815,812,812,811,811,813,816,814,815,815,816,816,812,810,807,805,807,808,808,811,812,811,810,809,809,808,803,804,806,807,804,807,807,811,810,809,809,807,806,802,801,799,803,807,810,813,811,812,812,803,806,802,802,803,807,813,819,823,828,831,830,828,827,823,820,825,832,837,840,846,849,847,847,844,842,840,834,837,834,834,834,829,829,822,817,808,804,802,795,794,792,794,795,798,798,798,797,795,796,797,798,800,799,801,800,798,802,803,809,815,834,860,902,955,1023,1106,1203,1302,1389,1466,1507,1522,1504,1445,1337,1209,1081,953,825,697,722,781,833,873,885,873,855,833,816,810,807,808,809,809,808,807,807,805,808,808,804,805,810,813,816,816,815,815,815,815,817,818,824,825,828,830,830,828,830,832,830,835,837,840,843,847,854,856,856,858,860,861,863,870,875,882,887,891,900,906,907,914,920,924,926,935,942,950,955,958,962,965,967,968,970,967,965,962,960,959,956,953,951,943,931,920,913,899,889,877,870,864,858,859,858,854,845,839,831,823,821,816,814,817,815,817,821,818,818,811,812,808,806,806,807,809,808,810,813,814,817,816,813,812,812,812,809,816,817,820,824,824,823,819,817,817,820,818,819,816,821,823,824,821,826,823,820,818,818,813,814,817,818,817,818,817,816,817,818,817,816,815,810,810,808,807,810,811,811,811,810,812,805,806,804,804,809,808,809,811,811,807,804,801,802,801,802,802,803,806,807,810,811,807,807,803,804,800,800,804,810
