860,861,860,863,864,863,861,859,859,859,859,862,863,865,866,868,869,867,866,864,862,860,859,858,858,858,859,857,857,855,854,854,852,852,852,854,854,857,860,862,860,862,863,866,865,871,878,886,903,923,947,970,992,1010,1022,1029,1034,1039,1045,1049,1048,1041,1030,1016,999,981,960,939,920,904,893,884,878,874,870,867,869,867,867,867,864,863,863,864,866,868,868,869,869,868,869,867,867,865,866,867,868,869,871,871,873,874,873,873,871,869,869,873,874,873,876,876,879,879,878,877,874,874,876,876,878,877,877,880,877,879,878,878,875,877,877,877,880,883,884,887,885,888,885,885,883,882,883,884,887,890,888,893,893,892,889,888,885,888,885,885,887,888,888,890,890,890,883,883,883,881,877,879,879,879,879,879,876,873,869,866,864,861,862,860,859,857,858,859,858,858,855,852,849,848,848,849,848,850,851,851,850,849,845,843,844,844,844,844,841,845,844,846,845,844,843,840,838,838,836,836,839,837,837,839,838,838,836,833,830,830,830,832,830,831,832,833,833,833,831,830,828,825,825,827,828,831,830,830,833,831,831,829,827,826,827,827,829,826,829,830,830,829,828,826,824,825,823,824,826,826,827,832,831,828,830,831,829,826,825,825,827,830,831,833,829,830,829,829,830,828,827,828,831,831,830,831,831,831,828,828,828,827,828,829,831,831,833,832,834,833,828,828,827,829,827,831,832,831,833,835,834,832,829,829,825,825,828,826,833,830,834,832,830,833,831,832,830,828,829,830,832,833,835,837,835,835,834,833,831,831,831,832,831,831,832,836,836,836,836,837,838,837,836,840,842,845,847,848,845,844,843,840,842,843,842,844,847,846,848,849,848,847,847,847,848,848,849,846,845,845,846,847,845,845,842,839,836,837,836,836,836,839,840,842,839,841,841,840,840,840,841,845,848,856,867,882,899,918,939,956,973,983,987,997,1002,1009,1016,1023,1023,1015,1005,989,969,952,937,918,906,893,884,876,869,861,852,847,843,843,843,846,847,848,850,850,851,852,845,849,848,849,848,848,850,848,852,854,852,853,853,850,853,852,850,852,854,857,856,859,860,860,857,858,856,856,856,859,860,859,862,862,865,863,862,861,861,858,860,861,864,864,865,867,867,869,868,865,865,866,867,865,869,871,874,876,876,877,876,874,873,871,871,872,874,874,877,880,877,877,876,873,871,872,867,870,868,868,866,866,867,868,866,864,860,856,855,853,853,852,851,849,850,847,843,844,841,838,838,833,834,837,839,839,839,838,837,833,831,830,831,829,832,832,835,835,833,833,833,831,828,829,828,827,829,831,829,827,829,828,826,825,821,820,819,821,818,821,821,824,825,824,823,821,820,819,818,818,818,821,821,821,824,822,820,820,818,816,816,815,815,819,822,823,824,821,822,821,821,819,818,817,819,820,822,824,824,824,823,822,821,819,819,817,817,821,820,825,824,826,824,821,820,820,821,823,822,824,827,826,826,827,824,822,821,820,822,823,826,826,828,828,830,830,828,828,824,823,823,826,826,825,827,830,830,826,829,828,825,823,824,823,823,825,828,830,832,827,829,828,824,825,828,830,828,829,832,833,834,833,831,831,830,829,828,829,830,830,831,835,839,841,840,844,841,840,841,842,843,843,846,849,849,849,847,847,846,845,844,842,843,846,849,849,851,848,845,843,843,840,839,837,838,839,840,840,839,841,839,838,835,834,834,834,836,839,842,845,844,845,848,848,852,857,867,885,912,935,962,981,996,1004,1005,1009,1015,1019,1018,1015,1006,994,982,965,948,929,912,898,885,875,866,861,855,851,848,849,849,853,851,853,852,850,850,850,851,852,855,854,853,854,854,853,852,853,855,856,859,859,861,862,860,858,862,860,858,857,858,860,860,862,862,865,868,867,867,864,863,864,862,865,867,866,868,870,867,868,869,869,869,868,867,872,871,874,877,877,878,879,877,876,876,877,876,878,881,881,884,885,885,886,884,883,884,884,881,881,879,883,884,885,885,886,883,882,878,875,874,877,876,877,878,879,874,872,869,867,864,864,860,861,859,861,857,860,860,859,856,855,852,848,847,849,850,851,852,850,850,851,850,848,847,846,844,845,844,844,846,847,845,846,844,843,840,838,838,836,841,841,844,842,846,844,841,837,836,836,836,837,838,837,838,837,837,837,836,833,834,834,831,831,834,834,836,837,837,837,835,834,830,832,831,830,834,835,835,838,836,838,838,837,837,834,836,835,834,838,840,842,841,841,842,841,839,839,836,837,840,838,842,842,845,846,843,842,844,844,840,840,840,845,845,847,843,844,846,844,844,843,842,841,844,845,847,847,847,851,851,850,846,846,844,844,846,848,850,849,849,850,850,847,847,848,847,846,847,850,851,854,852,851,853,847,847,845,844,846,849,853,850,855,854,852,852,851,850,849,850,850,853,855,857,864,863,864,865,864,862,860,860,861,863,865,864,866,866,867,865,864,862,862,863,864,866,868,868,869,864,864,862,860,858,854,853,850,850,855,858,861,858,860,860,855,856,856,853,855,858,860,859,867,869,874,882,895,912,935,958,986,1007,1026,1038,1047,1053,1056,1057,1052,1042,1026,1012,996,979,962,945,931,915,901,888,879,871,867,862,861,860,864,864,865,866,868,865,866,865,863,862,862,864,865,869,870,870,867,867,868,867,867,868,867,868,869,870,871,874,870,872,871,869,873,872,872,874,875,876,878,878,877,876,876,876,874,872,873,877,878,880,882,884,882,881,879,882,882,880,880,884,885,885,888,889,886,887,885,886,886,884,884,888,891,890,891,888,889,888,886,887,887,883,885,885,884,885,886,884,883,883,879,877,875,872,870,868,869,867,865,865,865,862,860,856,854,852,851,853,853,853,855,853,851,851,849,847,844,842,844,845,847,849,851,847,850,850,846,847,845,843,843,843,844,844,844,844,844,843,841,839,838,839,839,839,839,837,840,839,838,838,838,837,834,833,831,832,832,836,836,837,838,835,833,832,831,832,829,832,832,833,834,835,834,835,834,830,833,829,832,830,831,835,836,836,836,836,833,832,833,831,832,833,833,835,836,835,835,837,836,835,833,833,835,833,836,837,841,839,838,837,838,836,837,835,836,835,839,840,843,842,841,839,841,838,838,837,836,837,839,842,844,840,843,842,840,839,839,836,838,838,839,841,843,843,843,842,841,840,840,838,838,837,839,841,843,842,842,842,841,840,838,837,839,838,842,841,844,844,843,842,842,841,839,839,839,841,843,844,846,850,853,855,853,853,850,849,849,850,851,854,857,857,857,856,856,853,853,852,849,852,854,857,858,856,857,853,851,850,847,844,840,844,843,845,847,848,847,847,847,843,845,845,845,845,847,849,852,853,854,859,862,864,875,892,915,942,968,992,1011,1026,1032,1035,1042,1042,1034,1019,1002,986,968,949,934,918,900,890,878,867,861,853,850,848,851,852,856,857,856,855,854,856,852,853,852,854,856,859,862,863,860,862,861,858,858,857,858,858,859,860,863,863,864,863,863,860,861,859,857,860,863,867,870,870,870,867,868,866,867,864,864,866,870,869,872,871,872,872,874,870,870,871,871,871,873,875,877,877,879,877,877,878,878,877,879,879,881,881,883,881,881,879,879,877,876,875,872,873,875,876,877,877,877,873,868,867,865,861,862,861,860,860,857,857,855,855,851,849,846,846,842,842,843,847,846,848,845,845,844,844,841,840,842,840,840,841,842,843,843,843,841,839,836,835,835,835,835,837,839,839,837,835,831,832,832,830,830,829,832,834,835,832,832,829,829,827,825,823,823,824,825,826,827,828,826,827,827,826,824,822,823,824,824,824,825,830,825,826,823,824,821,820,819,821,824,828,828,830,827,828,826,825,825,827,827,827,828,829,830,832,831,829,830,828,830,827,828,827,829,830,832,832,834,832,831,829,826,825,827,828,829,832,833,835,835,833,831,831,830,829,830,831,831,832,833,832,831,832,830,833,831,829,827,827,829,832,834,834,833,832,829,828,828,828,829,830,831,834,836,836,835,836,833,830,829,826,827,832,833,834,835,836,837,833,830,831,831,827,830,830,832,838,840,842,843,845,840,842,841,839,841,843,845,848,849,849,850,847,846,844,844,844,843,846,846,848,849,845,846,845,844,842,841,838,838,836,837,841,840,841,840,840,837,837,836,837,837,839,842,843,847,849,848,854,860,867,879,895,918,940,962,982,997,1006,1010,1016,1020,1022,1017,1009,992,975,960,943,927,911,895,884,873,863,854,846,843,842,843,845,847,849,848,850,848,848,848,847,846,849,849,850,851,852,852,852,853,849,847,848,849,849,852,852,854,854,855,855,855,854,849,850,854,853,854,857,859,862,859,860,858,857,857,856,856,856,859,860,861,863,862,863,861,858,858,860,862,864,865,867,865,867,869,868,868,867,868,867,869,871,871,874,875,879,876,878,875,874,874,869,867,867,869,871,870,873,871,870,868,866,865,862,862,859,861,860,859,858,855,853,850,850,848,843,842,841,842,842,842,842,840,840,841,840,838,836,837,837,838,837,840,840,839,839,838,837,834,835,832,834,835,834,834,834,834,836,834,832,832,828,827,827,828,828,830,830,825,824,824,822,822,823,823,825,825,827,830,828,829,828,825,825,823,823,824,825,823,825,827,829,829,828,828,827,826,827,828,827,829,831,831,834,835,832,832,830,832,831,830,830,832,832,836,837,837,834,833,832,831,830,833,832,833,835,838,840,838,839,835,834,835,833,835,837,834,838,841,843,842,842,838,839,839,837,837,839,838,838,839,839,842,844,841,840,838,838,839,841,841,845,846,846,846,847,847,846,844,842,844,842,845,848,848,849,850,847,848,846,846,844,845,845,848,850,850,854,855,854,851,850,850,848,847,849,850,851,850,852,855,855,856,857,856,856,858,861,859,861,865,864,865,864,864,864,861,860,860,861,862,863,867,869,868,869,866,865,862,862,860,856,856,859,857,857,854,853,852,851,847,848,850,851,853,854,856,858,861,858,857,859,856,858,861,868,872,883,896,915,942,964,990,1013,1026,1037,1044,1051,1060,1063,1058,1048,1035,1021,1005,987,971,948,928,908,894,883,875,871,866,864,860,859,860,860,858,860,860,860,862,864,862,861,861,860,859,860,861,864,864,865,867,869,867,867,866,865,866,864,862,866,867,869,869,871,870,870,870,865,864,865,866,868,870,870,871,874,875,876,873,871,870,866,869,870,873,873,878,875,877,877,878,875,875,874,874,874,875,875,880,880,880,880,880,880,877,877,877,876,879,880,880,881,882,881,879,881,875,873,873,873,871,871,870,869,869,868,866,862,857,858,856,855,856,856,855,856,853,849,848,844,843,843,842,842,839,840,843,845,845,844,844,842,840,839,840,840,839,843,844,844,845,845,840,841,841,838,838,838,839,839,840,840,840,840,838,838,834,833,833,834,836,835,837,837,836,836,833,828,829,831,830,830,831,831,833,834,833,833,832,831,830,826,829,826,829,830,834,835,836,837,833,832,832,829,830,830,832,834,836,835,837,837,836,836,833,831,833,834,834,834,840,841,838,840,839,837,833,831,834,834,836,837,836,838,837,839,838,838,837,836,837,837,838,839,841,842,843,841,842,840,839,840,839,840,840,842,842,844,843,843,841,841,843,841,842,843,844,844,844,846,845,844,844,845,842,842,842,841,842,845,847,848,847,847,846,847,847,845,846,846,848,845,848,849,851,849,848,850,846,847,846,845,847,847,851,852,852,851,850,851,850,851,852,851,857,858,860,861,863,862,860,861,860,860,858,856,859,862,858,861,862,863,862,860,860,858,858,856,858,858,861,860,858,856,849,848,846,846,844,848,849,848,850,852,851,852,852,850,850,848,851,851,853,855,859,866,872,889,908,932,960,984,1004,1021,1033,1046,1055,1061,1054,1041,1023,1003,987,966,946,926,908,895,884,875,868,864,859,855,851,852,852,852,856,857,858,860,859,858,856,858,857,855,854,855,857,857,858,859,860,862,861,860,859,858,857,859,860,858,859,862,864,863,862,861,861,860,861,861,864,864,865,866,865,866,864,864,862,861,862,862,863,865,867,868,868,871,871,868,868,866,869,870,871,873,875,876,875,877,875,875,872,872,869,871,871,874,875,874,873,876,874,871,869,869,868,868,868,867,869,866,866,867,860,859,857,854,850,853,851,852,851,852,849,846,845,845,843,841,842,840,841,843,842,841,841,842,839,839,838,837,834,834,834,834,837,835,834,833,833,830,828,829,827,824,824,827,829,829,826,824,825,824,819,821,817,815,816,816,816,818,817,817,817,816,815,814,813,813,813,814,816,816,817,816,817,814,813,814,811,812,812,815,812,818,816,814,816,814,812,812,810,812,815,815,817,819,818,818,817,815,815,816,813,811,817,815,818,819,819,819,820,819,815,815,816,816,816,817,820,821,820,820,819,819,819,818,818,816,818,819,822,823,821,820,820,821,821,818,819,822,821,824,825,827,826,825,823,821,821,821,819,819,820,821,823,826,826,824,825,825,825,826,823,826,827,829,829,832,831,831,831,830,826,825,828,825,828,830,831,834,834,834,833,831,828,825,828,829,831,833,837,839,839,839,837,836,837,840,842,845,843,845,844,845,845,846,846,846,846,844,843,844,844,848,849,853,855,855,852,853,852,851,847,847,846,845,846,844,843,841,840,840,840,838,840,839,840,842,843,846,845,845,847,845,847,848,851,854,862,874,892,914,938,961,986,1002,1016,1023,1028,1035,1040,1042,1039,1031,1020,1001,985,967,948,929,910,895,883,871,863,860,857,851,851,849,849,850,850,850,852,853,852,855,854,854,856,855,854,851,853,853,853,854,855,857,860,861,856,854,854,854,856,856,858,861,859,861,864,863,860,863,860,860,859,858,857,859,863,864,863,866,865,864,862,861,862,863,863,866,867,870,870,870,871,869,870,868,867,867,869,871,873,875,874,873,874,871,874,870,868,868,869,868,870,872,872,873,870,867,864,863,861,862,863,861,862,863,860,858,857,849,848,845,842,843,842,845,844,844,843,842,842,840,839,837,838,837,839,840,839,841,841,840,841,839,833,832,828,827,832,836,835,838,836,836,835,833,829,828,827,826,826,826,831,833,831,832,829,827,826,824,822,822,822,824,827,829,828,827,827,822,823,822,821,821,821,822,822,827,827,824,822,820,821,820,821,821,824,824,824,824,827,825,825,826,823,821,821,824,826,829,830,831,831,831,830,830,827,825,826,827,827,832,833,832,834,831,833,830,829,830,830,831,830,830,832,835,835,834,832,833,831,830,827,826,825,827,831,834,833,831,834,831,831,830,827,826,828,831,831,833,833,831,832,831,832,831,828,830,832,834,832,834,836,834,832,830,828,831,831,829,830,833,833,835,836,832,831,832,834,834,835,833,834,837,837,838,838,839,838,837,836,835,832,835,834,837,838,840,840,842,843,843,842,840,844,843,847,851,853,857,857,854,851,851,853,852,850,851,854,855,857,859,860,861,859,860,858,857,854,857,855,854,857,856,856,853,851,845,844,844,843,843,845,846,845,847,849,851,851,850,849,849,850,851,854,854,859,868,876,892,914,936,958,978,995,1007,1017,1024,1031,1040,1049,1056,1052,1047,1032,1015,996,984,963,945,930,913,898,884,876,868,863,855,855,856,857,860,861,862,864,864,863,861,861,858,858,857,858,860,862,861,863,863,863,863,861,859,860,860,863,863,866,867,867,865,863,864,865,864,865,865,863,867,867,871,870,869,870,867,866,867,865,865,867,868,870,871,872,873,873,872,872,868,867,867,871,871,875,875,877,874,876,876,876,876,876,877,877,877,879,882,881,881,881,881,878,879,877,877,878,880,880,878,881,878,878,875,874,873,868,869,869,869,870,871,870,867,865,864,858,856,853,852,853,853,853,853,853,852,850,848,846,843,841,841,843,843,839,843,843,841,839,838,839,835,834,833,833,832,832,834,835,833,832,831,829,828,826,827,827,830,832,832,830,831,829,827,826,823,819,820,822,823,824,827,828,824,824,825,825,825,824,826,825,827,829,828,828,826,828,826,825,825,826,826,827,829,831,831,832,833,833,831,830,829,826,828,831,834,834,833,836,834,835,833,833,833,831,832,833,833,835,836,838,839,838,836,837,835,834,834,834,834,835,837,839,841,842,841,841,839,839,838,838,839,843,842,843,845,845,842,843,839,841
