898,899,899,899,902,903,903,905,905,904,903,903,902,901,900,898,901,901,902,903,904,902,902,903,900,901,897,897,899,901,901,906,904,905,903,903,902,901,901,901,903,905,907,911,912,918,921,920,921,920,917,918,919,915,913,911,915,913,911,910,910,910,909,909,913,912,909,907,904,904,904,903,903,906,908,910,915,923,936,957,987,1033,1092,1161,1238,1300,1341,1349,1315,1228,1100,972,844,716,666,710,774,828,863,877,878,876,871,876,882,889,895,896,894,893,890,888,887,890,890,895,895,896,896,894,893,891,892,895,896,901,904,904,903,903,900,900,900,901,903,904,906,906,908,911,915,913,914,912,912,911,912,914,916,921,923,927,927,926,926,924,923,923,927,927,930,933,936,937,937,938,937,936,937,935,931,934,933,934,936,937,936,938,938,936,935,934,932,934,934,937,940,944,944,946,950,950,954,952,955,955,957,958,956,953,950,946,947,939,936,933,932,930,927,926,921,920,917,915,915,911,905,903,904,903,904,905,906,905,907,905,902,902,901,904,904,903,904,908,909,910,912,912,914,913,915,916,916,918,919,922,922,927,926,925,926,924,924,925,924,927,927,929,929,931,933,930,928,927,928,926,925,925,922,923,923,925,923,922,921,918,916,914,913,912,911,911,913,915,913,913,910,908,905,905,905,904,905,904,907,908,908,907,905,903,902,900,898,897,897,899,900,903,905,902,902,900,900,897,895,894,897,898,901,902,900,901,898,896,895,893,895,895,893,893,896,894,894,895,895,892,894,893,891,893,894,894,896,899,899,899,896,895,893,893,893,893,895,896,895,896,898,895,895,896,897,894,897,892,893,893,894,896,898,897,895,892,891,892,891,893,894,895,897,897,896,897,895,895,893,893,893,891,891,892,895,896,897,897,896,896,894,893,892,892,894,896,895,897,897,896,895,893,894,893,891,893,897,899,898,904,908,911,915,915,913,911,909,910,908,906,903,906,909,908,905,905,905,903,903,903,899,898,898,895,895,894,899,901,903,904,909,914,924,944,977,1027,1094,1172,1255,1319,1351,1342,1281,1155,1027,899,771,683,708,766,824,864,880,884,879,877,877,881,883,889,890,890,886,882,880,880,882,881,883,885,888,889,891,890,889,886,888,893,890,889,891,895,893,897,898,902,904,903,904,902,903,905,906,907,911,913,913,914,914,914,915,915,916,916,919,919,921,926,927,928,927,927,927,927,929,930,934,934,936,938,935,937,937,938,937,936,940,939,939,938,941,940,942,943,943,944,943,941,942,945,946,949,953,956,957,960,963,962,963,962,962,960,958,957,951,949,945,943,941,937,932,927,922,921,918,919,917,916,913,911,911,906,904,902,902,901,901,903,906,906,906,907,907,907,907,906,907,906,908,910,912,914,915,915,916,916,916,916,915,918,920,924,924,923,927,925,927,925,925,925,923,924,925,925,924,927,927,927,927,924,924,920,919,917,919,920,919,921,919,917,916,916,912,912,910,912,912,913,911,912,911,910,910,910,906,906,904,901,904,905,906,904,906,905,905,903,903,900,898,899,899,901,903,901,903,902,902,900,897,898,897,898,900,901,899,900,900,902,901,900,898,899,898,896,899,899,899,901,902,902,900,899,898,897,896,898,899,900,900,901,903,899,901,898,898,898,896,899,897,898,898,901,900,899,901,901,899,897,897,896,897,898,900,904,903,902,901,900,899,899,898,899,901,900,900,900,899,901,900,900,901,899,901,899,899,899,898,901,904,902,903,902,897,895,898,898,900,901,902,903,906,903,904,903,901,902,903,902,902,901,904,906,908,912,917,918,921,922,920,921,920,919,919,917,920,917,915,914,911,913,915,914,914,916,915,914,909,906,905,905,904,906,907,906,910,913,915,919,928,934,948,973,1010,1061,1124,1199,1276,1334,1366,1366,1335,1260,1137,1009,881,753,688,713,768,824,864,882,887,880,876,874,878,886,891,894,893,893,892,891,887,888,888,890,892,889,888,891,890,892,895,897,899,899,901,902,900,901,900,903,904,905,909,909,912,911,911,910,912,911,912,913,914,915,917,920,919,922,923,925,924,924,925,926,925,928,931,933,937,935,935,934,933,934,935,937,938,940,941,944,946,944,944,944,943,940,939,942,943,944,945,947,947,948,947,947,946,944,944,943,943,948,949,952,955,957,957,956,961,962,963,968,968,968,966,969,966,964,961,958,955,950,949,946,944,942,938,936,935,932,930,930,924,919,916,914,913,914,914,919,918,919,919,917,916,914,912,911,912,916,918,919,920,919,922,925,922,924,922,923,925,929,928,930,934,933,932,934,932,933,932,932,932,936,938,938,940,939,941,939,938,933,933,935,936,931,930,934,936,935,933,933,932,928,925,925,924,925,926,926,927,925,925,921,919,915,915,913,911,916,917,920,919,917,916,916,913,913,909,907,910,910,912,913,916,915,913,911,910,907,905,903,906,907,912,911,911,910,907,907,905,904,905,905,905,907,908,911,910,910,909,907,905,903,902,904,903,906,908,909,907,906,906,906,904,902,903,903,906,905,905,906,908,906,905,903,903,901,899,901,905,905,908,910,911,909,908,905,905,902,902,903,906,907,909,910,911,910,909,908,907,903,900,904,905,907,908,912,913,911,912,909,908,903,906,908,910,915,920,924,929,929,932,929,928,925,922,918,917,915,916,918,922,924,923,921,920,915,914,909,907,906,909,912,914,915,919,916,920,927,934,946,967,1006,1054,1116,1190,1265,1323,1352,1344,1304,1206,1078,950,822,694,681,729,789,845,876,887,884,882,880,883,889,896,902,904,902,901,897,895,895,894,894,893,896,900,901,903,904,904,905,904,905,903,904,907,908,908,910,914,914,914,913,911,912,912,913,914,915,915,918,920,919,921,920,922,921,921,922,923,926,930,933,933,935,935,934,933,934,938,938,939,941,944,945,943,942,942,942,942,942,941,942,943,943,943,945,945,940,942,938,936,936,938,936,938,942,944,946,947,946,949,949,951,952,953,956,958,960,959,963,962,958,957,952,947,944,938,937,935,933,930,932,928,927,925,922,915,915,912,912,910,912,911,910,911,913,911,910,910,910,910,910,913,916,916,919,920,923,924,922,925,922,926,926,929,929,931,933,934,933,935,936,935,937,937,936,936,936,936,938,937,938,937,934,932,931,931,930,928,930,929,929,929,930,927,924,924,922,920,921,920,922,920,920,921,920,916,915,913,908,910,914,914,914,913,915,916,913,911,909,910,907,906,906,907,908,908,909,912,908,906,907,904,903,903,903,903,906,904,908,906,907,906,903,903,903,903,902,903,902,905,905,907,906,903,904,902,899,897,897,899,902,901,903,905,903,903,904,902,901,900,900,899,901,903,904,907,908,909,907,903,903,900,900,901,902,903,906,905,906,907,906,905,903,902,902,903,904,906,907,909,908,909,908,905,903,902,905,904,906,905,908,912,912,913,915,918,923,924,925,926,927,927,925,923,922,917,917,916,913,916,916,919,919,918,919,915,914,909,908,904,903,905,908,909,915,918,924,932,942,959,983,1018,1068,1127,1200,1271,1325,1349,1348,1301,1202,1074,946,818,690,669,719,782,839,869,880,882,879,879,880,886,891,895,895,895,893,891,889,893,892,894,891,892,893,895,895,898,900,898,902,904,905,905,904,904,904,905,906,908,911,912,913,914,913,915,914,914,916,915,915,917,921,923,925,927,927,928,929,928,928,928,930,931,932,937,938,939,940,942,940,938,937,939,939,938,939,937,942,942,942,939,940,940,941,936,933,935,934,937,940,940,941,939,938,939,942,941,944,946,952,953,954,957,960,960,958,956,952,949,946,943,941,940,939,938,935,931,925,921,917,916,913,914,910,911,913,915,915,915,912,910,909,908,907,908,909,912,911,915,916,917,917,917,915,917,918,920,922,922,925,926,927,929,927,927,928,926,930,931,931,933,933,936,936,938,936,931,934,932,932,932,934,937,936,937,936,936,934,931,929,925,926,926,926,924,928,926,925,925,923,922,919,918,917,915,914,914,914,914,916,916,914,913,909,907,909,907,908,909,910,909,909,910,911,908,905,905,905,905,906,905,906,908,908,907,909,906,904,902,899,900,899,902,903,907,906,904,903,904,900,900,901,902,902,903,905,904,905,905,902,900,902,899,900,898,899,898,901,904,904,904,903,901,900,899,898,899,899,902,903,906,904,900,900,899,898,898,898,901,898,901,898,899,899,900,900,899,900,899,897,898,897,901,901,903,904,904,901,899,896,899,897,897,902,905,903,902,905,902,902,903,903,904,907,909,912,915,919,922,924,926,924,921,918,914,910,908,909,912,914,917,916,913,915,911,909,904,901,897,901,902,906,909,914,913,916,922,929,943,975,1023,1089,1175,1258,1326,1363,1355,1297,1175,1047,919,791,675,699,757,818,861,881,889,886,882,879,879,882,886,889,891,890,890,889,887,886,886,886,888,888,889,889,892,893,896,894,899,899,898,899,898,899,897,900,903,908,908,910,911,910,909,910,910,910,912,914,915,917,919,921,921,921,922,921,922,922,923,924,927,926,930,936,936,935,934,935,937,933,934,937,940,939,941,941,943,942,943,944,941,941,942,943,943,946,948,949,949,949,947,947,948,950,952,955,959,964,968,970,971,971,968,967,964,960,959,956,954,951,949,946,943,937,933,931,926,923,920,917,917,918,917,915,918,916,913,912,908,911,910,910,913,914,915,916,916,914,913,910,911,913,913,915,916,919,922,922,924,922,923,922,922,924,923,926,927,927,931,930,930,929,928,928,928,927,928,929,930,929,930,929,932,929,928,923,922,923,919,920,921,922,924,922,921,919,918,916,915,916,914,911,910,916,914,915,912,912,910,911,910,908,907,906,908,907,911,909,911,908,907,905,905,903,903,904,905,907,908,905,904,904,904,902,900,900,902,904,901,902,904,903,905,906,901,898,900,899,900,899,897,900,905,905,904,904,901,902,898,898,897,900,901,903,903,904,904,902,898,898,899,899,897,899,901,901,904,905,904,905,900,900,897,898,899,900,902,903,905,905,903,903,901,902,899,897,899,901,901,903,905,902,904,902,902,902,899,899,899,899,904,906,907,903,903,903,901,902,909,912,914,918,920,920,919,921,922,921,913,908,908,906,906,908,912,914,917,917,914,911,909,904,900,898,899,903,904,907,911,914,920,922,931,941,961,994,1045,1112,1189,1266,1329,1358,1354,1308,1210,1082,954,826,698,690,737,800,849,878,889,884,879,875,879,882,888,892,896,893,891,891,891,888,887,887,887,886,885,889,890,892,896,896,896,893,894,892,892,895,894,897,902,903,907,907,908,908,908,907,909,908,909,910,913,916,918,919,917,918,919,919,918,917,921,922,925,927,928,930,933,931,930,933,932,932,933,935,936,937,939,941,940,941,941,939,937,938,939,940,941,943,945,945,943,940,941,939,937,939,942,942,946,949,949,951,949,954,954,956,959,960,962,964,965,968,967,965,961,958,955,951,945,940,939,939,939,937,938,934,931,926,923,918,914,913,910,912,913,913,914,913,912,913,909,910,912,912,913,913,913,914,917,918,919,918,920,921,921,919,923,925,926,928,932,932,928,932,931,931,932,932,931,932,933,932,933,935,934,935,935,934,931,931,929,929,929,927,932,932,932,930,929,929,927,923,922,921,919,920,921,921,919,921,921,917,916,912,913,913,914,917,917,920,916,916,914,913,910,909,910,911,911,914,915,915,915,914,912,910,909,908,907,907,910,911,914,915,914,911,910,909,905,907,907,905,909,911,912,913,912,911,910,910,906,907,907,906,909,912,912,914,912,912,909,905,904,904,908,910,911,911,914,912,912,913,910,909,909,906,906,906,907,910,913,913,913,911,910,909,907,908,910,909,911,911,913,912,912,910,910,911,911,909,908,912,913,915,917,920,922,924,926,927,926,928,929,930,930,933,930,926,923,923,921,918,919,918,922,921,924,922,923,921,919,916,915,915,915,917,919,923,930,938,951,967,992,1032,1082,1147,1219,1285,1333,1352,1336,1272,1152,1024,896,768,673,697,756,816,862,881,889,891,890,890,897,902,904,906,903,899,898,900,899,899,903,904,907,905,905,907,907,907,905,906,911,911,915,918,917,922,921,919,917,915,918,918,922,925,928,929,930,930,928,928,929,928,930,931,933,933,936,937,936,934,935,938,939,938,941,941,944,943,946,946,947,947,950,947,949,949,949,948,950,952,954,952,950,947,946,946,945,945,944,944,942,943,946,946,944,945,945,949,947,950,953,957,960,964,967,967,966,962,961,960,956,954,952,949,946,948,948,947,942,937,934,928,926,922,920,921,920,924,923,924,923,919,919,917,917,917,918,919,921,926,927,928,928,927,927,926,927,927,930,931,933,937,940,942,941,941,943,942,940,938,937,940,941,943,945,945,946,945,941,939,937,937,938,935,940,938,938,938,935,934,934,932,932,928,926,927,924,927,926,928,927,927,923,921,920,919,917,915,916,918,919,914,916,916,916,916,915,914,912,914,912,913,915,912,914,913,912,910,907,907,906,908,909,911,912,911,911,910,910,910,904,906,906,908,911,910,909,911,910,913,910,908,907,906,906,908,910,911,911,910,910,908,907,904,903,902,904,909,909,912,913,913,912,912,910,910,908,907,905,905,909,912,912,915,916,915,910,907,906,904,905,906,910,910,911,914,914,918,919,923,925,928,928,928,929,928,929,931,929,924,922,920,920,920,918,920,923,924,922,918,919,914,913,912,911,912,915,916,919,924,929,937,947,959,981,1013,1057,1112,1175,1246,1304,1336,1338,1304,1215,1087,959,831,703,680,728,790,846,881,898,902,900,899,897,899,900,898,901,898,899,900,904,905,906,904,905,901,902,902,905,907,911,911,912,914,913,912,912,913,915,915,916,915,917,919,922,924,923,924,924,925,925,925,922,927,929,929,932,934,934,934,936,935,933,937,939,938,941,941,942,945,946,945,946,944,943,942,941,943,945,947,946,946,944,946,942,943,940,940,939,941,942,942,945,945,946,945,947,948,946,946,950,952,955,960,964,964,962,961,959,953,951,945,947,947,945,943,944,943,938,935,933,929,926,922,922,917,915,916,918,918,918,918,915,912,910,913,916,914,917,918,918,922,918,920,917,918,918,918,918,918,921,923,926,928,928,931,933,933,928,933,932,933,935,938,939,939,941,942,940,940,936,934,937,936,938,936,939,939,936,937,937,933,932,930,928,930,930,928,930,931,930,927,926,923,922,921,922,920,922,922,925,924,923,920,919,919,916,915,915,914,916,915,917,917,918,915,916,913,911,909,910,909,909,911,912,914,913,912,909,908,909,908,908,908,909,911,913,914,912,912,911,910,907,907,909,908,909,909,909,911,912,909,910,908,906,906,905,906,906,907,909,910,911,909,907,907,906,904,905,906,907,908,909,908,908,908,907,907,905,904,905,905,906,906,909,908,910,911,907,906,905,903,902,901,899,904,906,907,906,905,906,904,905,905,909,911,914,922,924,927,926,924,922,920,917,915,909,908,908,908,914,917,916,915,911,913,911,908,903,902,902,906,908,910,910,913,913,914,915,922,928,945,973,1014,1071,1141,1214,1286,1332,1349,1327,1264,1142,1014,886,758,685,710,767,823,866,884,886,882,880,881,886,892,895,898,894,892,890,887,888,887,887,889,889,892,895,897,897,896,897,896,897,894,896,896,899,903,906,906,909,906,906,904,905,903,906,910,912,914,916,917,915,918,920,920,919,917,918,918,919,925,926,931,931,933,931,931,930,929,931,935,937,939,939,941,940,939,940,939,940,939,939,941,939,942,944,944,946,946,946,943,942,942,943,946,949,952,954,960,960,962,963,963,964,964,961,962,960,957,956,954,954,949,948,943,936,936,931,928,927,925,925,922,920,918,913,913,910,907,909,905,904,908,910,910,912,912,909,911,909,907,906,906,908,910,913,914,917,916,915,916,914,915,918,920,922,923,924,925,925,926,927,927,924,923,922,925,925,926,927,926,927,923,920,922,922,920,918,916,918,917,916,920,918,915,915,914,911,909,910,909,912,911,911,911,911,911,908,906,904,900,900,901,903,905,905,907,904,904,902,902,901,899,899,901,901,900,902,902,902,902,901,901,899,897,897,897,896,898,898,900,901,901,901,897,897,895,892,896,897,896,898,900,899,900,897,900,896,897,896,895,894,894,898,898,899,896,896,895,894,893,893,892,897,897,900,902,900,899
