811,813,816,812,812,813,817,820,817,816,814,822,828,834,839,841,842,845,849,852,849,850,851,853,856,856,856,849,848,846,846,841,840,836,836,838,839,831,825,821,817,816,816,811,803,800,799,803,806,804,801,800,800,802,803,802,801,797,792,794,795,788,776,768,761,766,775,797,823,854,897,939,982,1020,1051,1081,1103,1125,1137,1144,1144,1137,1126,1113,1094,1062,1010,945,885,844,821,818,816,823,830,834,833,825,817,805,798,794,796,794,790,787,789,790,793,799,797,799,797,799,799,794,792,789,792,793,797,797,797,797,796,795,796,797,796,794,795,799,802,802,802,804,804,807,806,805,799,799,802,805,808,811,809,807,809,810,808,808,807,808,812,813,816,814,813,811,815,817,817,816,813,811,814,816,822,822,821,821,823,824,824,822,817,814,814,819,824,822,820,821,817,823,821,820,814,813,815,816,820,820,817,816,817,817,820,815,811,811,813,816,815,813,811,812,813,816,808,807,803,801,800,804,806,807,804,801,802,799,799,798,793,791,793,798,801,798,798,801,803,805,804,801,795,793,796,800,801,804,802,802,804,808,805,803,803,802,806,809,808,810,808,810,809,813,815,813,811,813,817,823,821,824,824,833,839,844,845,845,849,854,856,858,857,855,857,858,859,856,847,845,836,837,837,843,840,836,834,828,828,825,820,813,807,804,806,809,810,806,805,804,807,808,808,803,802,798,801,805,804,803,800,795,789,781,772,765,759,763,784,812,852,891,927,963,999,1036,1064,1092,1116,1132,1140,1149,1147,1142,1121,1102,1065,1010,948,880,837,811,809,816,831,836,837,832,825,811,807,797,789,786,786,790,797,798,795,794,793,799,799,795,791,788,790,794,797,797,799,799,799,799,798,797,793,791,792,793,795,795,801,802,804,803,803,803,801,799,802,804,804,805,806,805,812,814,813,810,807,808,812,813,817,816,811,816,818,817,819,817,813,813,815,821,823,822,821,823,828,828,828,824,822,816,823,828,828,828,827,826,826,828,829,827,820,819,818,819,825,826,823,825,822,825,826,825,818,816,819,820,821,823,824,819,817,816,817,818,811,806,806,810,813,817,815,811,813,812,814,813,808,807,804,803,807,811,810,805,806,806,804,802,802,800,799,802,807,811,812,810,809,809,813,812,813,808,803,805,812,814,820,817,813,812,810,813,816,814,813,813,815,818,823,825,827,830,831,834,831,829,829,828,837,846,855,858,856,856,859,862,859,863,861,858,860,866,865,864,858,851,847,845,849,850,847,848,844,840,838,838,830,825,820,817,816,815,812,810,812,812,814,816,816,815,813,814,815,816,810,807,803,801,797,790,780,771,773,786,810,841,874,912,951,992,1029,1067,1099,1122,1142,1147,1159,1159,1148,1138,1120,1094,1056,1004,939,883,843,823,821,830,843,850,845,843,835,829,821,811,804,799,797,802,806,805,806,802,804,805,806,810,806,806,800,802,804,806,805,807,807,809,811,810,809,804,803,807,811,809,809,808,808,812,812,814,814,809,810,810,811,815,814,813,814,817,821,823,822,819,816,815,818,823,826,826,826,829,827,827,828,824,823,824,822,827,829,831,828,829,825,831,831,831,823,825,822,827,830,833,831,831,831,830,833,833,827,826,825,826,830,831,829,830,830,834,829,826,821,822,820,824,823,825,823,825,827,828,828,825,820,819,822,820,820,822,817,822,821,818,820,816,812,815,815,814,813,812,811,816,815,814,817,813,812,816,819,819,815,815,817,819,821,822,821,816,819,818,821,820,823,821,820,821,821,823,823,820,822,826,826,828,829,829,833,838,838,835,832,834,837,845,851,851,854,859,864,870,873,872,871,868,867,870,871,872,872,869,866,870,868,868,865,860,858,856,853,847,844,840,836,843,841,836,835,829,827,827,825,824,824,823,820,829,830,830,827,822,816,815,816,815,809,798,788,785,790,805,828,853,892,935,980,1022,1064,1101,1132,1160,1180,1186,1183,1175,1159,1137,1101,1046,980,918,875,852,841,841,849,854,856,858,854,846,833,825,821,822,820,818,809,808,809,807,814,816,817,817,817,819,819,820,819,818,815,820,821,820,822,818,822,821,824,823,820,817,815,819,824,825,827,824,826,827,829,828,825,818,818,820,824,826,830,832,832,835,840,834,830,828,831,834,833,832,832,830,835,840,841,842,840,840,840,843,844,843,839,839,839,845,848,850,848,843,845,847,845,847,842,841,843,850,848,846,843,839,841,845,848,846,842,842,845,852,849,845,844,841,841,844,840,841,841,839,844,844,841,841,839,841,842,843,840,834,835,837,833,837,837,832,830,828,827,828,823,824,825,831,836,838,836,835,835,839,840,840,839,837,836,842,841,842,841,838,835,834,839,841,837,835,837,836,844,846,848,851,852,853,854,855,849,851,851,858,864,872,873,875,876,876,881,884,888,886,883,882,883,890,889,889,883,881,880,878,877,874,871,872,871,867,864,856,846,846,842,840,837,838,836,835,840,842,840,840,840,840,843,843,842,838,829,836,833,825,811,801,792,793,804,827,856,894,940,987,1027,1065,1096,1119,1148,1162,1176,1180,1175,1165,1152,1132,1100,1046,978,912,868,842,843,848,857,868,876,874,864,856,845,838,833,832,831,828,824,821,822,826,828,834,835,834,838,841,841,836,829,832,833,835,836,837,832,832,833,835,838,837,834,833,838,841,842,845,838,840,840,840,840,837,835,837,839,844,845,845,842,842,849,853,852,852,845,843,841,847,855,857,857,854,854,853,851,849,847,850,855,857,859,857,857,862,867,864,863,863,859,853,851,855,855,854,854,851,852,856,855,855,856,853,858,862,863,860,855,851,851,849,853,851,843,844,851,851,851,853,849,846,850,849,852,853,847,846,847,848,845,843,847,845,849,849,846,845,841,840,843,847,851,850,848,846,842,843,840,839,841,843,847,854,853,853,849,847,843,847,849,845,843,847,851,858,859,860,860,859,859,864,867,870,873,878,885,892,892,894,895,895,899,899,895,891,888,887,889,889,887,884,887,889,883,878,875,864,860,857,858,857,856,853,852,852,852,850,846,845,842,845,847,855,853,852,851,847,847,842,832,821,807,803,806,815,830,852,886,929,973,1013,1041,1067,1094,1121,1144,1164,1172,1171,1169,1161,1153,1130,1093,1038,973,911,869,850,845,852,866,879,883,881,869,857,846,839,837,839,836,837,834,836,838,841,842,840,836,838,839,845,847,847,848,842,844,847,846,847,840,840,840,845,849,848,848,844,839,841,841,845,838,840,845,845,853,854,851,847,847,850,851,851,851,848,850,854,858,862,862,860,858,859,859,860,861,859,858,859,864,864,863,861,864,865,867,869,865,863,862,864,867,870,872,870,862,860,862,863,866,865,863,863,866,868,867,862,857,856,859,859,858,856,852,855,856,862,860,861,858,855,849,848,848,850,849,849,850,852,856,852,851,847,845,847,845,850,845,847,845,848,848,848,848,843,839,837,840,840,840,839,840,842,844,847,847,845,840,838,841,843,844,845,841,841,842,846,848,848,844,843,838,842,845,845,846,844,845,848,849,850,849,846,843,845,847,853,853,850,852,852,856,857,856,858,850,850,862,867,872,876,877,879,881,886,886,886,881,883,884,887,892,896,892,885,880,878,881,875,873,867,863,866,866,859,854,848,843,841,839,835,831,830,827,831,834,836,834,829,827,829,830,830,826,822,827,825,822,820,812,803,792,785,794,812,841,876,913,957,997,1037,1068,1096,1118,1138,1153,1161,1156,1153,1141,1131,1121,1105,1071,1019,956,892,851,827,822,830,839,846,850,851,851,839,830,815,808,807,810,810,811,808,808,809,813,818,816,813,811,815,815,814,812,813,814,819,820,820,814,816,813,817,817,813,816,814,818,818,821,818,816,818,816,818,816,812,814,819,825,829,831,828,825,826,826,826,824,822,820,825,828,831,830,833,830,832,831,830,830,827,825,828,832,838,838,834,833,831,832,831,829,831,830,829,833,835,838,833,830,829,829,828,825,821,824,828,832,829,827,826,827,824,823,825,823,819,819,824,826,830,828,824,821,825,820,818,817,812,811,814,819,819,818,814,810,810,812,812,809,806,801,800,810,809,808,806,803,805,807,808,808,803,801,804,811,814,815,814,811,810,809,810,811,808,807,811,813,818,818,817,814,815,815,816,817,817,814,824,825,828,831,829,831,837,838,841,841,844,849,855,857,858,857,856,856,854,856,853,849,845,843,844,847,845,844,840,836,832,830,822,817,813,809,813,815,815,813,811,811,810,809,808,806,804,803,806,810,811,809,805,797,793,785,773,763,761,771,793,825,860,898,937,978,1017,1055,1086,1116,1128,1137,1146,1137,1128,1112,1089,1055,1005,939,879,835,810,800,811,827,839,834,831,824,816,809,799,793,787,791,795,797,798,796,795,792,794,798,797,795,792,793,795,801,802,799,796,800,800,799,798,796,792,791,795,803,803,803,799,804,804,804,806,802,800,804,807,814,813,815,811,806,810,812,809,808,808,813,815,820,820,821,817,820,820,819,819,816,811,811,820,823,823,824,817,819,821,824,821,819,817,818,822,826,826,826,825,823,823,823,822,819,813,814,817,821,822,819,820,818,816,819,818,816,813,813,817,822,821,821,817,816,816,815,818,817,808,807,808,810,809,810,806,808,804,806,807,803,798,797,801,801,803,800,800,800,802,800,800,796,794,798,803,808,804,803,802,805,803,801,801,800,797,797,801,804,808,807,807,809,810,810,810,808,805,806,809,815,819,818,819,816,818,821,823,820,821,822,828,837,847,849,849,851,845,850,854,855,854,851,849,854,856,853,853,848,843,842,839,841,839,836,832,826,825,823,816,813,811,808,809,804,805,800,801,805,807,811,808,802,803,804,806,805,802,798,795,794,788,783,774,769,777,793,816,851,887,924,962,1002,1037,1070,1098,1117,1128,1139,1139,1140,1131,1117,1101,1076,1037,980,917,859,823,805,801,814,826,833,830,825,819,812,801,793,790,788,787,789,791,788,789,791,797,795,796,795,798,796,793,793,789,793,794,798,799,801,799,797,799,801,800,798,794,796,800,803,806,804,804,806,809,806,805,803,801,803,808,811,812,812,810,813,815,813,812,811,812,813,819,818,818,818,819,816,821,820,815,817,818,815,824,825,827,824,826,821,824,826,824,818,816,819,822,822,820,817,820,821,822,820,815,814,817,820,818,821,819,817,820,820,823,819,816,810,812,815,815,816,816,814,818,816,818,812,807,808,807,807,807,806,804,805,807,808,805,803,797,796,799,802,802,803,801,806,808,810,804,799,804,802,808,807,806,805,807,811,813,814,810,809,808,806,808,810,809,812,814,817,822,821,821,818,820,823,822,821,818,824,830,838,842,843,844,846,853,859,863,865,862,860,860,862,864,865,859,854,854,852,852,851,850,848,844,843,843,842,835,827,822,820,819,818,820,820,817,816,818,817,815,810,806,801,806,809,812,812,815,810,813,808,796,784,772,767,772,790,818,853,894,939,985,1023,1057,1087,1116,1140,1157,1167,1168,1166,1157,1142,1121,1083,1031,963,902,858,832,827,832,835,850,853,850,842,832,819,810,800,800,805,807,809,809,811,813,814,812,809,807,805,808,813,813,812,809,808,809,811,815,812,806,803,808,810,812,814,815,813,814,816,822,819,815,814,815,816,819,815,817,817,821,823,823,824,822,821,820,827,829,828,827,826,827,829,832,829,828,823,823,827,833,838,835,835,835,835,835,835,835,832,831,835,838,844,847,843,840,836,837,839,840,840,837,835,834,836,837,838,835,834,834,838,839,838,836,836,835,836,838,838,836,834,831,831,835,839,835,835,830,831,833,836,835,833,829,829,829,832,827,824,820,819,821,825,826,827,824,823,821,827,825,824,821,821,821,821,824,822,820,821,824,825,826,823,823,820,826,831,835,837,835,832,830,831,835,835,833,830,830,837,841,838,840,837,838,841,844,848,847,847,848,857,868,873,873,872,872,874,875,878,880,877,878,880,885,880,876,873,870,869,866,862,852,850,849,852,853,852,845,838,835,834,835,832,831,829,833,833,834,838,837,835,833,831,831,832,827,820,815,812,805,794,789,792,800,826,861,906,949,984,1021,1053,1088,1117,1142,1155,1162,1170,1170,1164,1149,1130,1094,1041,983,923,878,845,833,837,851,868,871,866,860,851,845,836,827,824,819,819,819,820,819,824,829,831,836,837,833,831,830,832,829,829,828,827,826,832,834,837,834,830,828,831,832,833,833,835,831,836,842,842,841,838,834,832,836,837,839,839,842,843,848,852,850,847,846,846,844,848,845,844,847,853,861,859,855,852,846,845,848,849,851,850,854,857,861,857,858,852,850,855,853,849,847,852,855,856,857,853,845,848,849,850,849,851,852,854,856,857,853,849,844,844,847,848,854,850,847,853,849,849,854,849,846,849,850,850,850,844,842,842,845,846,845,842,841,845,846,846,843,836,832,836,841,848,850,848,846,846,847,842,840,841,836,839,842,847,845,843,847,849,848,851,850,850,855,859,865,868,872,868,870,872,876,877,882,883,885,892,895,898,897,892,888,892,893,890,887,881,877,879,882,885,883,879,872,866,862,860,856,852,847,848,856,855,851,847,843,841,842,844,847,843,838,841,843,844,847,842,833,827,816,810,800,799,812,837,874,917,960,1000,1037,1067,1102,1129,1152,1160,1166,1166,1164,1157,1139,1107,1059,998,933,881,847,835,842,861,879,889,885,877,862,852,848,840,833,829,833,836,837,842,841,840,836,842,844,845,842,838,835,835,843,842,847,841,840,839,840,844,842,839,840,843,847,850,850,843,848,850,850,848,847,846,844,851,855,859,859,857,855,855,857,858,857,853,852,856,864,867,868,864,862,863,864,864,863,860,860,866,870,867,870,866,866,867,868,867,866,864,861,864,870,870,868,866,865,864,863,862,859,854,858,857,863,866,865,862,858,858,859,856,857,855,850,852,856,862,858,859,856,854,852,852,855,849,845,843,852,854,855,851,846,843,844,845,844,839,839,839,838,840,843,839,837,836,839,839,837,834,835,839,843,846,845,844,837,837,840,840,842,840,840,838,838,843,848,845,839,838,839,843,842,839,838,839,840,845,853,851,849,847,847,847,850,851,854,856,860,864,874,876,878,877,877,875,878,881,878,879,881,882,884,885,878,873,866,866,865,864,862,856,854,848,845,843,838,834,829,832,831,831,829,823,826,827,826,830,824,825,822,824,826,824,819,812,808,798,797,795,801,815,840,873,914,955,992,1024,1058,1091,1122,1144,1154,1158,1156,1152,1142,1128,1114,1082,1037,982,923,872,834,818,819,830,844,850,847,840,827,825,822,817,811,808,804,809,806,807,806,804,808,812,820,818,816,812,811,812,812,810,810,809,810,812,819,821,819,811,807,810,810,813,814,814,813,814,817,821,823,817,813,813,813,818,820,821,821,819,822,827,828,826,824,822,824,822,825,826,825,826,827,832,836,832,825,824,826,830,830,830,830,831,833,836,839,837,832,832,827,831,831,829,830,829,833,833,833,828,827,825,827,826,823,824,825,827,830,830,829,825,818,815,821,821,819,818,820,821,824,827,827,822,814,812,814,815,818,815,811,810,812,813,816,813,808,803,802,803,803,806,806,803,802,806,807,805,801,799,795,797,801,806,806,805,804,807,811,813,807,803,801,804,808,809,810,812,813,816,820,821,818,816,817,818,820,823,824,829,834,843,847,848,847,846,845,849,852,851,851,852,851,851,853,851,847,838,837,839,844,841,837,830,826,822,822,821,816,807,800,799,803,802,805,803,802,804,803,802,801,798,796,796,800,798,798,795,787,778,774,767,764,768,777,800,834,875,918,961,992,1023,1056,1092,1119,1134,1140,1140,1136,1131,1119,1101,1074,1028,969,906,848,812,795,792,806,819,831,833,828,815,804,797,791,787,783,782,780,784,788,791,789,786,786,789,791,793,791,790,787,787,791,792,797,796,795,794,793,787,789,789,787,789,789,796,800,799,795,795,795,797,798,797,798,798,799,802,806,803,803,799,800,804,805,806,803,806,811,813,814,811,810,811,813,815,816,815,814,808,810,815,819,820,819,815,813,815,816,818,817,815,815,815,819,818,817,813,808,808,812,810,810,809,809,807,814,815,814,813,809,804,806,802,803,804,804,807,807,812,810,813,806,801,801,802,801,805,801,799,800,802,803,803,800,796,793,793,794,792,791,788,790,792,795,792,790,786,782,783,786,789,790,788,788,788,790,794,790,787,786,783,789,794,793,792,797,799,799,800,799,799,797
