878,883,894,911,938,964,993,1020,1041,1053,1062,1065,1066,1066,1066,1062,1052,1039,1028,1017,1007,992,975,955,936,920,905,893,884,877,876,876,878,878,880,879,877,877,876,875,876,876,877,883,884,884,884,882,880,880,878,877,878,878,879,880,883,883,885,884,883,882,881,884,884,884,885,887,889,888,886,885,885,885,883,883,885,884,887,888,890,891,892,890,889,888,888,886,885,888,891,891,894,896,895,895,893,894,893,889,891,893,893,896,896,894,894,893,893,893,890,890,890,890,891,890,892,889,888,883,882,880,880,879,877,876,874,874,874,871,869,867,863,862,860,859,854,854,858,860,860,859,858,854,856,854,853,851,851,853,852,855,858,858,859,856,854,852,851,849,850,848,850,851,853,854,852,852,850,849,846,847,846,846,845,848,849,849,849,849,847,845,842,843,843,844,844,843,846,846,845,846,845,842,839,838,837,839,840,842,845,845,846,845,844,842,841,842,840,842,846,845,849,848,850,849,848,844,844,842,844,845,846,850,854,853,851,849,850,847,848,847,846,848,849,851,854,854,854,854,853,850,849,850,848,850,850,851,855,856,857,855,855,854,850,851,851,852,853,854,855,857,854,856,856,856,853,851,852,853,855,856,860,860,858,859,856,857,855,853,855,854,855,857,858,859,854,856,856,856,855,855,856,855,858,857,861,861,861,861,858,858,858,860,861,864,869,871,873,873,872,871,869,868,868,868,867,870,869,872,873,875,873,872,873,873,871,870,870,870,869,872,872,870,866,865,864,858,857,858,860,861,861,864,864,867,867,865,864,864,861,861,863,865,869,875,888,903,924,946,968,989,1009,1022,1032,1039,1044,1050,1060,1066,1063,1058,1044,1030,1014,999,982,965,947,930,914,901,892,880,875,871,870,868,870,871,872,875,876,879,875,873,876,874,874,873,873,873,874,876,880,879,877,878,877,876,877,875,876,878,879,883,883,882,883,885,885,883,880,880,881,880,883,882,885,884,885,883,882,878,880,881,880,879,883,884,886,885,885,887,886,884,883,882,885,883,885,886,888,887,888,883,886,887,886,885,887,888,888,891,891,892,890,889,888,888,885,883,883,882,883,884,884,883,881,880,876,874,871,868,869,867,867,867,868,867,864,864,862,860,858,855,855,856,857,858,859,860,859,859,857,857,856,856,854,856,855,859,859,857,856,857,858,857,857,856,853,853,855,856,858,856,858,854,852,852,851,849,849,849,850,849,854,854,852,848,849,846,842,842,843,845,845,847,847,849,849,847,846,845,843,844,844,842,842,845,846,849,846,847,843,844,844,842,842,843,844,850,851,851,849,849,848,848,847,845,843,847,846,852,853,855,855,854,853,852,850,850,849,851,851,853,855,857,856,854,852,852,850,851,850,852,851,852,852,850,855,856,853,851,852,854,853,853,853,855,856,857,857,856,856,855,851,851,850,850,851,855,858,857,856,855,854,850,849,850,852,851,853,853,855,856,859,857,857,854,855,852,852,853,857,857,861,860,859,860,861,862,863,863,863,867,868,866,870,872,871,870,867,867,865,866,865,868,867,869,871,872,873,871,870,867,867,865,864,865,865,864,861,862,860,859,857,858,856,857,857,858,861,863,863,863,865,865,864,865,863,867,869,877,889,909,935,960,990,1013,1029,1039,1048,1057,1061,1062,1056,1042,1027,1012,994,975,954,938,916,901,891,881,878,874,872,872,872,872,871,871,870,869,870,869,870,872,874,875,876,877,876,876,874,874,874,877,877,878,881,881,881,882,880,879,877,876,877,880,882,884,882,884,884,882,880,881,882,879,880,882,883,884,887,888,887,885,884,882,885,883,881,882,884,888,891,892,891,892,892,892,890,887,892,892,893,893,896,897,896,893,896,895,892,886,888,887,892,891,892,892,890,890,888,886,882,880,879,880,882,882,881,882,880,878,873,870,869,868,866,867,867,868,871,868,869,867,862,858,859,859,861,860,862,863,863,865,865,862,864,860,855,852,854,855,856,856,855,857,856,854,854,853,848,849,847,847,847,851,852,850,852,849,846,845,842,842,841,842,842,843,845,845,845,845,843,842,841,837,838,841,842,840,843,845,844,844,843,843,840,839,840,839,843,842,847,845,846,847,845,845,842,842,842,842,843,843,846,846,846,848,847,844,844,841,844,844,846,848,849,851,848,850,849,847,846,845,844,846,847,847,846,848,847,849,849,848,847,846,849,846,846,851,851,852,852,851,849,850,848,849,849,850,849,852,856,853,855,852,852,852,847,847,847,850,850,853,854,858,856,856,855,852,848,848,850,852,854,855,854,857,858,856,855,853,852,852,852,854,856,860,862,862,864,864,869,866,863,861,859,857,862,864,867,867,868,868,866,863,865,861,863,864,866,868,871,871,870,868,864,860,856,853,853,852,857,856,859,859,858,857,856,857,856,854,855,858,859,863,864,865,867,867,872,880,891,907,931,956,980,1000,1018,1028,1034,1045,1050,1052,1044,1031,1015,997,974,953,932,916,900,889,879,872,866,863,864,865,866,868,869,870,869,867,867,865,866,864,865,867,868,869,870,871,872,872,871,870,870,868,868,870,872,873,874,873,875,876,874,873,871,870,870,873,873,876,878,880,881,879,879,875,876,874,874,876,877,879,880,881,882,883,881,880,880,878,878,881,881,885,885,888,887,888,888,885,883,883,883,883,885,886,886,887,885,885,884,884,880,880,879,874,879,880,880,882,879,877,874,870,867,867,865,864,864,865,865,864,862,862,860,858,855,853,850,852,851,855,854,856,857,855,856,853,848,847,849,850,852,853,852,853,852,851,847,848,846,847,845,845,844,845,848,848,848,846,845,841,840,839,838,839,841,842,843,843,842,841,839,837,835,833,834,836,835,837,840,844,840,840,841,839,837,837,836,839,839,839,845,846,845,846,841,842,840,840,842,842,844,845,845,849,846,846,845,843,846,844,843,846,845,846,846,850,848,848,850,849,848,848,848,850,850,852,854,852,853,855,852,852,851,851,851,850,850,854,853,853,855,855,855,853,852,852,855,853,854,856,855,857,858,858,857,858,856,854,855,854,857,857,860,860,860,861,857,858,856,854,856,857,858,860,864,863,863,858,859,858,858,856,857,855,860,862,862,863,863,862,861,862,860,862,862,863,865,868,871,876,878,875,873,868,866,865,869,869,871,874,875,878,876,874,871,871,872,870,870,870,870,871,873,872,872,873,868,865,864,862,861,860,861,863,865,865,867,867,864,861,860,860,862,861,865,867,869,872,872,875,883,895,906,926,946,966,985,1000,1011,1020,1025,1034,1044,1051,1053,1049,1036,1022,1003,982,962,942,924,906,894,885,875,871,870,870,872,873,876,878,876,876,875,872,869,867,867,868,870,873,876,876,881,878,878,876,876,874,877,875,877,880,882,882,882,879,878,878,877,875,878,879,880,880,884,886,885,884,884,883,880,879,881,883,884,887,887,890,888,885,887,887,883,884,884,883,886,889,891,894,894,894,892,890,890,890,890,891,892,892,895,896,895,896,897,893,891,892,892,891,892,893,894,895,893,894,893,888,885,883,882,881,880,880,881,882,881,878,876,873,869,864,865,866,865,866,865,866,864,865,864,862,863,859,856,855,859,858,862,861,863,861,859,857,854,852,849,850,851,853,853,854,854,852,851,849,846,845,842,842,843,842,843,846,845,845,843,843,841,840,838,838,839,841,843,843,842,841,839,837,837,836,835,837,836,840,841,843,845,843,842,840,840,838,839,838,840,842,846,848,847,848,845,845,842,841,840,842,842,846,848,846,846,847,846,845,844,843,845,846,844,848,849,848,846,845,845,846,843,845,844,845,848,847,847,850,850,849,848,846,844,843,844,844,846,847,851,851,850,850,848,847,845,843,844,843,846,847,848,852,852,850,849,847,843,844,841,842,845,847,849,851,850,850,849,849,847,846,844,846,848,847,848,852,851,848,848,847,847,847,846,847,846,849,851,853,853,853,852,852,852,854,854,857,859,861,859,860,861,861,860,858,857,857,856,853,853,857,859,863,863,863,860,858,857,855,851,852,849,848,850,850,852,850,848,846,845,845,845,847,849,850,851,853,852,852,854,854,852,855,857,866,877,897,919,943,961,978,990,997,1000,1002,1008,1018,1029,1035,1035,1029,1016,999,979,950,931,911,895,880,872,865,859,857,856,856,856,859,859,857,855,853,857,858,861,863,865,864,864,861,861,858,859,861,862,864,866,867,867,869,866,864,864,865,863,866,864,867,868,871,868,869,869,869,869,869,867,867,868,872,873,875,877,875,874,873,871,871,872,869,872,876,876,878,880,879,879,877,877,877,879,879,880,881,881,885,886,885,883,882,883,880,880,882,883,884,882,884,887,884,884,882,879,877,875,876,874,875,876,875,872,869,867,865,860,858,857,858,856,858,857,859,856,853,853,852,850,848,846,845,846,846,849,848,850,848,846,844,842,841,842,841,838,840,843,844,842,842,839,839,836,835,836,835,835,836,833,835,834,831,833,830,827,827,828,829,829,830,830,834,832,832,831,830,828,828,827,826,825,829,828,830,832,831,829,827,827,828,825,825,827,828,832,832,833,831,832,830,829,829,828,829,831,832,832,836,836,836,834,833,834,831,832,830,833,834,835,840,838,839,837,837,836,836,834,833,833,835,836,837,840,837,838,837,834,832,833,832,834,837,836,839,838,837,838,836,833,834,833,833,835,835,836,839,837,839,838,835,833,831,831,830,833,834,838,840,840,839,836,837,833,833,829,832,834,837,837,836,838,835,833,834,834,834,832,832,831,834,836,837,839,838,838,837,834,834,836,837,839,842,843,847,844,844,842,842,843,844,843,843,842,843,842,842,845,844,847,845,842,838,837,835,835,836,839,842,839,838,835,829,831,830,829,831,834,833,835,836,834,837,838,837,840,841,842,844,849,855,865,882,906,928,950,970,987,1001,1008,1015,1022,1028,1037,1038,1030,1019,1004,990,973,958,942,927,913,897,884,872,861,856,848,843,842,843,844,845,845,846,848,852,852,855,858,858,857,855,853,850,852,854,857,860,861,858,860,856,854,854,854,857,858,861,861,861,858,858,860,859,861,857,857,853,855,856,858,861,863,864,864,864,861,856,856,859,859,865,865,870,866,864,862,861,864,865,866,867,873,874,872,873,870,871,869,868,868,865,864,863,865,869,870,871,867,867,866,863,860,860,858,857,858,857,858,860,860,862,860,856,852,848,846,849,849,851,852,853,853,852,851,849,850,846,846,845,844,847,848,850,848,851,849,849,850,849,847,849,850,851,854,852,851,853,851,850,850,849,848,849,851,851,853,853,852,850,849,847,846,846,844,844,845,851,854,858,855,851,846,846,850,852,853,854,850,846,845,851,853,854,856,854,849,848,845,847,849,850,852,854,857,859,859,858,854,855,854,849,850,852,852,853,852,852,849,850,850,850,851,850,854,858,862,865,862,860,857,856,853,846,839,839,841,846,845,847,850,848,852,853,861,864,862,863,862,864,864,867,869,868,868,863,863,858,852,855,858,859,860,862,858,858,858,854,855,851,847,845,849,857,861,864,864,863,861,856,853,851,850,850,853,855,859,863,866,865,861,858,858,855,854,860,864,872,873,876,874,871,868,867,869,869,870,867,868,868,867,869,870,872,873,872,873,871,872,872,868,866,862,862,860,857,857,855,856,856,856,853,852,850,850,854,854,854,855,853,853,851,849,847,852,859,872,891,914,941,966,987,1003,1019,1029,1037,1043,1050,1053,1059,1051,1043,1030,1013,994,977,956,937,918,909,901,897,888,881,875,866,861,859,857,857,858,861,863,866,864,860,859,858,860,861,862,864,867,872,874,875,874,869,866,861,863,865,868,870,871,869,872,873,872,872,873,874,871,870,869,868,870,873,872,876,874,876,878,877,876,874,875,874,874,874,875,879,879,882,881,880,876,878,879,881,881,884,884,886,888,888,886,885,881,882,883,885,886,888,890,890,891,891,889,887,884,880,877,879,878,878,876,879,879,877,875,871,867,862,860,858,858,861,864,864,864,861,855,853,851,847,848,846,847,848,847,848,845,846,843,846,844,845,840,838,840,841,840,841,843,841,839,835,833,836,837,839,840,839,837,837,835,835,834,835,829,830,828,827,829,829,828,827,830,830,830,826,826,826,825,826,826,823,826,832,830,829,827,824,824,823,820,821,824,824,828,830,827,827,828,826,828,827,827,826,826,827,829,830,832,831,830,827,826,826,826,829,830,833,834,835,836,833,831,829,828,826,828,827,828,828,831,833,833,836,834,833,831,830,826,826,827,829,833,834,832,833,832,832,829,831,827,829,829,830,829,830,830,830,828,828,830,824,825,828,827,834,834,837,836,835,836,831,831,827,828,829,830,833,835,837,836,837,836,835,832,830,826,828,831,833,836,837,839,838,838,839,840,837,840,842,843,844,845,845,844,847,849,848,848,846,845,846,846,846,849,849,848,847,846,844,841,842,841,843,842,843,840,841,841,842,842,841,840,840,841,842,843,842,842,846,845,847,847,847,847,851,855,865,883,908,934,964,989,1007,1022,1028,1033,1035,1039,1042,1038,1030,1018,1005,990,973,959,942,927,910,895,880,870,863,859,856,855,855,855,855,856,855,854,852,854,855,857,858,860,860,860,859,860,858,857,858,859,863,863,864,864,864,864,863,863,865,864,865,866,865,866,867,867,867,869,866,866,866,866,866,866,868,873,873,874,873,873,871,871,869,868,869,869,870,874,875,878,878,879,875,872,871,869,875,873,876,880,879,879,879,879,876,874,873,869,871,871,872,871,873,872,869,870,866,863,857,860,858,858,859,854,855,852,849,847,845,842,838,839,834,834,834,836,833,834,832,832,830,829,829,826,828,828,828,828,828,829,828,827,827,825,824,824,823,824,822,826,827,824,825,822,824,820,819,818,819,820,818,816,818,819,817,815,815,815,814,812,814,814,817,814,816,819,818,818,818,815,813,813,814,815,817,817,820,819,816,817,816,817,814,815,815,813,815,820,820,823,820,819,820,819,818,818,818,818,821,823,824,825,825,823,823,819,817,818,816,818,822,824,826,825,827,826,823,823,823,821,823,823,825,826,826,826,827,824,823,823,824,822,821,821,825,826,826,827,826,828,824,824,821,821,823,825,827,827,829,830,830,830,828,826,825,825,823,825,825,826,828,828,828,828,827,826,824,824,825,822,826,826,827,831,832,832,829,828,828,827,829,832,836,837,838,841,838,834,835,837,837,835,834,837,836,839,841,842,841,843,842,843,842,840,840,841,840,839,837,837,836,833,829,830,830,829,829,829,833,831,833,835,834,834,835,836,835,834,836,838,846,855,867,885,905,928,950,970,988,997,1003,1008,1014,1023,1031,1034,1027,1017,999,982,966,947,928,910,895,879,867,859,850,848,842,840,838,839,841,840,845,846,846,847,848,846,846,844,844,843,842,844,846,848,848,852,850,851,850,847,848,847,850,850,852,855,855,856,857,858,855,852,854,856,855,857,857,858,860,862,863,864,860,861,858,859,859,859,861,862,865,867,867,864,865,865,864,864,866,864,865,868,871,872,871,871,871,868,869,869,870,870,871,871,871,873,872,869,868,866,865,866,862,864,865,865,866,865,864,860,857,856,852,850,848,850,846,845,847,846,841,842,840,836,833,834,834,832,834,833,834,837,837,836,833,832,830,829,830,826,832,829,833,833,832,831,830,827,826,825,825,827,828,829,827,826,826,824,824,823,822,819,819,819,820,819,821,821,820,822,819,818,817,814,816,814,815,817,817,818,822,818,817,818,815,813,814,814,816,819,821,824,824,825,822,823,820,817,817,821,823,824,826,826,823,819,818,819,819,822,822,823,826,826,826,828,829,831,825,823,823,820,823,822,823,826,828,829,830,829,829,827,829,827,828,829,829,829,829,831,834,833,833,832,831,829,829,827,832,832,834,838,836,837,834,831,832,831,831,833,833,834,835,837,837,836,836,835,835,835,834,836,836,838,836,841,839,838,836,835,835,834,835,837,840,839,843,845,846,846,847,848,849,848,846,846,848,849,851,851,850,851,849,846,848,846,849,850,851,854,853,854,853,851,847,844,843,840,840,839,841,839,841,839,840,841,839,838,837,836,837,835,841,844,844,846,848,846,845,847,850,858,870,890,915,940,964,984,997,1003,1006,1014,1026,1028,1031,1026,1018,1002,992,978,960,944,925,907,889,878,866,860,856,852,849,849,850
