846,844,848,848,852,852,852,849,848,848,846,847,847,845,849,851,853,850,852,851,845,846,845,845,844,846,848,851,852,849,851,851,849,849,847,848,849,848,853,856,859,860,862,860,858,858,857,858,861,861,866,869,871,872,873,875,875,876,877,879,881,883,888,894,894,898,900,900,902,902,901,903,904,909,913,915,915,912,917,918,920,920,918,916,915,919,918,921,921,918,914,909,904,898,895,888,888,884,885,884,882,880,875,873,871,867,863,863,860,860,859,859,863,863,866,864,857,855,854,855,855,857,858,863,864,862,863,860,859,852,855,857,855,856,858,861,861,865,865,862,859,861,859,861,860,860,859,864,862,864,866,866,861,857,860,856,859,859,862,866,865,865,869,864,861,859,857,855,855,852,859,858,863,858,858,856,853,850,850,852,852,850,853,858,859,858,858,856,854,852,852,847,849,851,853,855,857,854,854,851,850,849,849,846,848,848,850,851,853,855,853,851,851,849,848,846,845,848,848,851,850,850,851,846,847,844,845,846,842,845,847,849,848,849,850,849,846,843,841,840,841,841,845,847,848,850,848,848,846,843,842,841,843,843,844,844,849,847,848,847,843,844,842,841,840,843,845,842,846,845,848,842,842,843,842,839,839,843,845,845,849,846,848,845,841,843,841,842,843,842,846,846,849,848,848,845,848,844,842,841,841,842,842,845,850,847,846,848,843,845,845,844,845,847,852,855,861,865,867,868,865,865,868,867,867,871,878,880,879,879,876,873,868,866,864,861,862,863,864,869,866,863,857,850,846,843,839,835,832,833,834,834,837,837,837,838,835,833,827,829,828,829,830,835,833,836,836,835,834,833,833,834,832,832,835,837,840,840,841,842,839,835,837,838,836,843,845,848,853,857,860,873,894,930,978,1025,1080,1137,1196,1245,1270,1258,1198,1100,975,849,755,703,697,726,771,803,826,836,835,831,828,828,835,836,840,841,844,843,845,845,842,842,842,840,839,838,837,836,840,843,843,844,843,845,841,839,838,836,836,836,843,840,843,841,841,842,842,840,837,839,839,842,842,842,845,847,847,845,844,842,841,839,843,847,847,849,854,853,853,853,853,854,854,853,855,856,860,864,870,870,872,872,870,874,877,877,881,883,887,891,894,898,899,903,902,903,902,904,908,912,917,921,924,928,926,928,928,924,922,922,920,919,921,919,918,913,911,908,903,896,890,885,883,878,877,873,875,871,865,864,858,858,852,847,850,849,850,853,852,851,852,849,847,847,845,844,844,846,848,849,851,849,852,852,850,847,847,847,847,848,847,849,853,856,854,856,855,850,851,849,849,850,851,854,857,858,857,856,854,851,851,849,849,849,855,856,858,857,858,856,856,852,850,849,847,849,853,854,855,856,854,851,846,846,843,843,843,843,845,846,847,847,848,845,843,841,841,841,837,839,841,841,844,844,844,844,840,840,837,838,836,839,839,842,839,841,842,839,836,837,837,837,836,836,836,837,840,841,842,840,838,838,836,835,835,836,838,840,838,843,842,843,842,840,838,834,834,836,837,840,839,841,841,841,837,836,833,836,836,837,839,841,841,840,842,843,839,838,836,834,834,835,836,838,840,842,841,842,835,836,832,833,832,836,839,840,840,841,841,840,836,839,836,837,833,834,836,839,838,838,841,841,841,839,836,837,836,837,838,839,841,843,842,843,838,838,837,835,838,836,839,839,845,846,848,845,842,839,837,835,836,838,840,843,841,843,845,842,844,843,843,843,842,841,845,850,859,860,863,867,865,868,866,866,865,867,869,874,880,880,880,875,873,868,864,862,862,860,860,862,864,865,862,856,851,845,842,837,834,830,830,832,832,831,831,830,829,827,824,825,824,824,825,829,832,831,831,831,826,824,824,825,824,826,829,830,831,831,830,833,833,831,832,828,832,832,835,837,839,842,846,847,854,860,881,913,955,1005,1055,1109,1161,1213,1244,1241,1199,1116,1016,908,807,736,704,707,736,768,793,809,809,808,804,803,811,819,828,838,839,837,836,833,834,829,830,827,831,831,833,836,837,840,838,841,838,838,835,834,834,834,834,837,837,836,837,840,837,834,833,832,832,831,834,833,835,838,841,838,841,837,833,832,833,836,839,839,840,842,843,845,844,842,844,844,843,845,850,849,853,851,854,855,857,857,856,856,863,864,865,869,876,881,881,884,885,885,885,888,884,887,891,896,901,905,907,909,911,913,907,913,917,915,918,921,922,925,922,923,919,917,914,908,908,900,897,896,895,892,887,881,878,871,868,864,856,860,856,857,856,854,854,852,850,850,849,846,844,843,844,845,847,849,849,848,847,845,845,843,845,843,844,846,845,851,849,846,848,847,848,846,846,849,846,849,850,849,853,853,851,850,849,848,849,851,850,852,852,857,857,853,853,851,853,847,848,851,850,853,855,856,855,854,852,850,846,844,842,845,847,850,847,847,847,846,847,843,843,842,841,842,842,843,845,845,847,844,846,839,841,835,840,841,841,839,843,842,840,840,840,838,838,838,834,840,840,841,844,843,845,846,841,837,835,834,833,838,839,842,839,844,844,840,842,839,836,836,838,837,841,844,845,848,847,846,847,843,841,837,838,840,843,844,847,847,849,846,843,842,841,839,839,840,845,846,846,847,849,847,847,844,843,842,842,841,842,845,845,847,848,848,845,842,839,840,838,839,840,844,848,848,848,851,850,849,850,846,849,855,860,863,867,869,872,873,872,874,876,877,881,881,882,884,880,880,880,873,871,870,870,867,867,868,866,864,861,859,854,846,844,843,843,842,839,838,836,838,836,837,838,840,837,835,835,832,831,831,835,837,839,838,841,837,834,835,836,836,838,839,841,841,845,842,844,846,848,847,846,844,843,842,845,849,854,860,874,899,938,981,1033,1085,1144,1203,1249,1269,1253,1200,1117,1012,903,799,727,692,690,712,739,769,790,807,814,820,828,834,839,843,843,843,843,842,846,847,848,849,850,846,843,844,841,845,845,845,846,849,850,850,849,849,847,846,845,845,845,847,847,850,851,851,847,846,843,843,843,843,845,849,849,850,852,853,852,849,850,849,850,850,850,853,854,856,855,857,858,859,858,857,853,856,859,862,867,871,872,874,872,872,875,878,877,879,883,888,891,894,894,897,899,898,901,903,903,901,906,910,916,917,921,920,921,921,919,921,918,919,922,922,920,920,919,915,911,905,905,898,890,888,887,882,883,884,881,878,876,872,868,866,863,863,860,862,862,865,864,862,864,861,860,859,854,853,858,861,860,860,858,857,862,858,856,857,855,855,856,862,860,864,861,866,864,863,863,864,860,860,864,867,867,869,870,871,867,867,862,863,860,861,862,863,865,869,865,867,866,865,864,862,860,861,861,863,864,865,866,865,864,862,860,858,860,856,858,857,858,857,859,859,860,858,855,853,851,850,852,853,854,855,858,854,856,853,851,850,848,848,849,848,851,852,851,854,852,850,849,847,845,847,850,847,851,853,853,851,852,849,848,846,847,845,846,847,851,853,854,853,850,849,846,846,843,845,845,846,848,850,851,851,850,848,845,845,843,843,843,848,850,849,850,849,847,848,845,844,845,842,845,846,851,850,850,852,851,847,849,848,845,842,846,850,848,850,850,849,851,848,846,845,845,843,839,844,847,853,852,851,849,850,846,849,847,848,850,852,855,856,860,860,863,866,867,865,865,865,872,871,879,880,883,884,885,882,877,873,869,868,870,868,871,869,870,872,871,866,859,860,855,847,844,842,843,839,841,843,839,837,835,832,831,831,832,837,840,840,839,840,840,838,837,835,834,835,832,837,839,837,837,843,845,842,839,838,834,836,839,843,847,850,851,853,855,854,855,859,866,886,919,961,1011,1063,1117,1171,1226,1265,1281,1267,1219,1139,1038,932,832,758,718,715,740,772,805,824,830,828,826,827,832,838,846,849,850,847,845,842,840,840,840,843,845,846,847,847,844,844,845,839,841,840,841,844,845,845,846,847,844,839,839,838,840,843,839,842,845,848,847,848,848,846,846,844,843,844,843,845,846,851,851,852,851,851,849,845,843,845,849,849,854,857,859,861,862,860,859,862,862,865,867,870,872,877,879,884,882,883,884,885,886,888,891,899,902,905,908,911,913,913,915,916,917,920,923,926,930,931,935,935,931,930,930,926,923,920,918,917,916,912,907,902,900,895,885,883,879,873,871,867,867,867,869,865,861,859,856,854,854,851,852,850,853,855,854,853,852,853,849,851,848,848,845,845,850,853,853,856,849,848,849,848,846,848,849,853,854,856,854,855,856,852,851,850,850,849,850,855,851,855,857,855,856,854,851,849,849,849,849,853,853,855,851,851,854,851,849,848,849,850,849,849,851,851,853,850,854,849,846,845,845,842,841,842,843,844,843,844,847,846,846,840,840,837,841,841,842,845,846,845,844,842,837,837,835,835,837,838,838,838,841,841,842,839,839,836,836,837,836,838,841,839,841,843,842,842,840,839,837,837,837,840,841,842,844,842,842,841,836,838,836,831,837,839,842,840,843,842,842,839,841,839,841,841,840,842,842,846,844,842,841,841,839,839,837,838,838,839,842,844,844,845,842,842,843,837,837,838,839,842,841,846,846,847,845,844,843,840,841,838,841,840,843,841,846,846,844,841,842,838,837,837,838,841,845,845,847,846,843,844,843,840,841,840,840,843,846,848,850,850,852,849,849,848,847,851,854,860,866,870,870,872,872,870,870,873,876,876,874,875,877,875,874,872,870,863,861,862,859,863,860,857,856,856,851,849,839,838,833,835,833,831,827,828,832,836,835,835,832,832,832,831,830,830,833,832,833,836,838,835,838,835,834,835,833,834,836,838,840,845,846,846,847,848,847,848,848,853,866,890,925,972,1021,1070,1125,1180,1222,1247,1240,1193,1110,1004,890,791,733,715,728,759,790,817,823,826,821,823,827,835,841,844,844,843,838,836,835,834,836,839,841,841,843,844,843,839,838,834,836,838,838,840,842,843,843,843,841,840,837,836,836,836,838,839,838,841,844,844,846,842,839,839,837,837,838,840,843,844,844,844,842,843,843,840,842,843,843,847,851,849,854,856,859,858,858,859,858,859,862,865,871,872,879,880,879,883,878,882,887,889,893,898,902,903,908,914,913,915,914,914,915,919,916,920,927,928,931,930,927,924,920,914,912,904,902,901,901,896,893,889,882,880,873,868,861,858,856,855,856,856,858,857,855,847,844,842,843,843,845,845,847,848,849,850,849,845,843,842,842,841,839,842,845,849,849,848,848,846,844,845,843,844,846,847,848,850,851,851,851,851,849,847,849,845,847,847,848,851,852,854,854,852,850,849,846,847,848,846,848,847,850,847,849,848,845,843,842,836,838,841,841,845,846,844,842,840,838,837,833,837,838,839,840,840,839,844,844,842,838,835,836,835,835,835,838,836,839,840,841,841,836,836,834,834,836,838,839,839,841,841,840,839,838,836,834,830,833,832,836,838,840,840,841,838,838,835,832,832,831,834,838,840,842,839,840,839,836,838,836,836,836,836,839,839,843,842,841,838,837,837,832,836,837,838,841,842,841,841,841,838,841,838,834,836,835,837,842,838,846,845,846,847,843,843,841,842,841,843,843,848,851,852,858,860,861,861,863,861,863,862,865,870,876,879,882,883,880,878,871,870,867,865,866,867,871,874,872,869,864,859,853,843,838,838,835,840,841,839,839,838,834,832,828,827,830,831,832,832,835,835,835,835,829,829,828,827,829,831,831,836,837,836,839,839,835,834,837,836,838,841,844,845,849,846,850,848,847,845,853,867,904,945,1000,1055,1114,1174,1231,1266,1272,1235,1162,1065,951,839,752,703,690,704,730,759,777,790,796,802,810,819,831,840,846,849,847,845,840,839,836,834,838,840,843,847,849,849,849,848,846,844,843,843,842,843,844,846,847,845,848,845,844,842,842,842,840,843,845,846,845,847,845,840,842,839,840,838,844,847,846,848,851,851,852,850,849,847,847,842,845,848,850,855,859,862,859,857,856,858,855,858,860,861,864,870,875,880,881,879,882,880,882,882,883,890,891,893,898,903,905,906,909,907,910,908,910,915,917,918,921,922,922,919,918,915,911,908,908,910,906,903,902,899,896,891,886,880,876,873,871,870,865,867,867,863,862,859,853,849,847,846,844,844,850,852,852,855,854,853,849,848,848,847,847,846,848,852,854,855,855,854,851,849,849,849,850,850,853,854,854,853,858,856,854,853,853,853,855,857,857,859,862,864,865,862,861,859,859,858,858,859,860,862,865,864,861,859,860,857,856,855,851,855,857,856,863,862,861,860,859,855,853,850,846,847,852,852,855,854,855,852,851,849,846,845,846,847,847,849,852,851,854,852,848,847,846,839,840,841,846,845,851,851,854,851,852,848,846,847,846,848,847,847,849,847,850,850,846,845,842,839,840,840,843,846,848,848,850,851,848,845,842,842,842,842,846,845,851,850,851,849,845,845,845,842,841,842,844,847,847,846,848,847,844,840,840,840,838,840,844,844,844,847,847,846,844,841,839,840,842,844,845,846,847,848,846,848,847,840,843,843,843,842,847,850,850,853,855,854,855,856,855,859,865,866,870,873,875,878,878,880,880,877,875,870,868,868,866,865,869,867,869,868,866,858,853,846,843,841,838,841,843,838,837,836,832,829,828,829,827,831,830,832,833,832,832,833,832,829,827,828,827,828,833,834,838,839,838,838,833,833,833,831,832,835,837,841,845,847,847,849,850,851,854,862,886,920,972,1022,1074,1131,1185,1238,1271,1270,1234,1158,1050,928,819,736,697,701,728,771,800,815,823,822,820,825,828,835,841,845,844,842,839,836,835,834,834,837,838,841,845,845,844,842,841,838,838,838,836,837,839,840,845,843,844,843,841,841,840,838,840,839,839,841,842,843,843,845,843,842,839,838,841,840,846,847,850,849,850,848,847,850,849,848,849,851,853,855,858,861,860,864,866,866,866,867,869,873,875,879,890,891,893,894,894,896,898,900,905,907,912,917,920,926,928,930,929,930,932,930,934,935,933,935,935,936,933,928,923,915,908,902,897,890,889,885,882,881,878,870,866,861,859,858,852,855,852,855,857,855,854,852,853,848,848,845,847,844,847,849,850,852,852,850,848,847,845,843,843,844,847,847,852,852,852,852,852,847,847,847,846,848,851,853,853,854,855,855,855,856,851,851,850,847,847,852,856,857,854,857,855,851,850,849,846,847,849,851,853,852,850,850,849,847,847,845,844,842,843,851,853,853,851,850,846,843,841,838,840,842,841,847,846,847,847,845,843,842,842,840,837,838,838,841,843,843,842,839,840,841,836,839,837,835,839,840,843,841,841,840,838,836,834,831,832,832,835,838,840,840,841,841,839,839,834,834,835,834,834,837,838,839,839,838,837,834,834,832,832,831,833,834,835,842,839,838,838,833,833,831,832,833,832,835,838,837,835,838,834,833,834,833,832,831,836,837,839,840,841,839,839,839,837,836,835,835,837,839,842,843,843,845,842,839,836,835,836,836,840,841,841,842,843,845,840,841,838,836,837,836,840,841,841,843,841,840,842,840,840,839,837,839,841,843,843,844,846,845,842,839,841,841,839,841,842,842,842,843,841,846,843,842,841,839,840,841,841,845,844,847,847,847,845,843,840,840,838,840,840,842,844,843,846,844,844,846,840,839,840,844,844,847,849,847,848,848,849,846,842,844,845,843,845,848,852,854,854,858,862,860,860,863,863,865,865,870,876,877,883,886,889,885,886,881,879,877,875,874,871,872,872,869,869,866,862,856,849,846,845,842,840,839,843,838,837,836,835,834,835,834,834,836,838,838,837,839,836,834,832,834,830,831,833,837,835,839,838,838,836,837,839,839,838,838,839,846,847,850,852,852,852,852,860,867,894,932,979,1029,1080,1135,1192,1240,1266,1259,1214,1138,1036,921,816,743,708,714,745,784,810,828,832,828,823,818,824,832,841,846,846,848,846,840,836,835,837,836,840,838,842,844,845,844,843,843,841,838,838,838,839,843,844,844,846,843,844,840,838,839,834,835,839,843,842,847,844,843,843,839,840,839,840,842,844,846,847,848,847,848,844,845,843,842,842,847,849,850,856,858,858,859,861,858,858,857,857,862,863,869,872,878,883,884,886,886,886,889,891,893,899,902,906,909,914,917,917,917,919,917,918,924,926,929,934,938,938,937,934,932
