841,841,841,842,844,844,846,845,842,841,843,842,842,843,845,847,846,847,847,847,846,844,842,841,843,843,843,844,846,849,846,846,845,845,843,844,842,846,846,850,851,853,853,852,851,849,849,847,850,852,854,858,861,863,865,864,863,863,860,858,859,859,864,863,864,866,866,866,864,864,862,862,864,866,868,868,868,866,867,865,862,860,857,855,853,851,852,853,856,856,855,856,855,856,856,855,855,856,857,860,864,868,872,879,888,902,923,944,972,997,1016,1032,1039,1047,1050,1055,1057,1053,1046,1031,1018,1002,989,974,957,941,923,905,893,884,873,868,866,865,865,867,867,870,869,870,867,864,864,862,862,864,866,867,870,871,871,869,868,865,866,866,867,868,870,872,875,875,874,874,876,875,874,876,875,876,875,878,877,878,879,878,878,879,878,876,877,877,879,882,883,883,883,884,882,878,877,882,883,883,885,886,887,890,887,890,888,888,884,885,886,886,890,889,893,895,893,893,894,891,892,890,891,891,894,890,889,889,891,890,889,888,885,883,881,881,881,880,882,881,879,876,872,870,866,862,862,861,862,862,862,862,861,862,859,859,856,855,853,857,857,857,860,857,856,855,853,854,852,851,849,850,852,852,854,854,853,855,851,852,849,848,847,847,848,848,851,850,848,847,844,841,841,841,841,840,839,842,844,845,842,846,843,842,842,841,840,838,840,842,843,845,845,844,843,844,841,840,842,843,845,845,847,849,847,846,846,846,844,844,844,844,844,844,847,847,848,848,847,845,845,844,845,845,847,847,848,847,849,849,847,846,845,845,844,845,846,850,850,852,853,851,851,848,849,848,848,846,849,850,853,853,853,853,854,850,850,849,850,850,850,851,856,857,857,856,856,854,854,854,854,854,853,855,859,857,858,858,856,855,854,851,851,853,857,858,858,860,861,863,860,859,859,858,858,859,859,863,865,865,863,861,861,860,858,860,860,859,859,861,864,868,867,869,868,869,869,870,869,871,871,877,876,878,878,875,877,875,874,873,873,875,877,878,882,884,884,881,879,878,874,872,870,868,869,870,870,871,871,871,869,869,867,866,868,869,872,873,876,877,880,880,881,887,897,912,934,957,984,1006,1025,1038,1050,1055,1063,1071,1072,1068,1057,1043,1029,1015,999,980,956,939,922,907,897,890,886,881,881,884,883,888,886,884,883,880,882,881,880,881,882,884,884,887,889,888,886,885,885,885,883,887,889,890,891,891,891,890,890,887,885,887,890,889,892,891,894,895,895,895,895,894,894,892,891,892,894,893,892,894,895,896,897,897,895,897,895,895,899,900,903,905,905,905,902,901,900,899,897,899,903,907,908,908,907,907,908,907,902,901,902,902,899,901,901,902,902,901,899,896,893,890,891,891,891,893,892,889,885,885,880,880,878,876,876,878,876,876,878,877,876,871,872,870,869,869,867,867,867,868,869,870,868,868,867,866,862,859,859,858,859,860,860,863,860,859,862,855,856,855,850,851,853,853,853,854,852,853,851,849,847,844,843,844,845,847,848,851,848,851,850,849,849,847,845,846,847,848,852,851,852,852,849,847,847,847,847,847,848,851,850,853,852,853,852,852,851,852,850,852,849,853,857,857,856,856,856,855,854,853,851,851,852,854,858,860,860,862,859,859,858,857,855,856,858,859,862,864,864,863,860,862,862,859,860,863,863,862,864,865,866,865,867,867,867,868,867,865,867,866,866,869,869,871,870,872,871,870,871,870,872,872,874,875,876,876,876,874,874,873,871,873,875,878,880,882,882,881,878,877,877,872,876,878,880,882,883,886,884,885,881,880,878,878,876,878,882,882,884,885,884,887,888,885,885,885,886,891,893,894,896,898,898,898,898,897,896,896,898,896,896,897,900,903,901,901,902,900,898,896,892,892,893,890,890,890,890,890,891,892,890,888,890,889,892,894,894,898,897,896,897,896,895,897,898,902,906,916,932,950,973,997,1018,1032,1045,1052,1056,1064,1070,1079,1083,1085,1078,1066,1049,1033,1016,996,976,963,951,939,928,921,917,910,908,903,904,902,905,904,906,907,909,911,912,911,908,907,908,908,907,908,909,911,910,913,914,914,912,910,909,910,910,911,911,914,915,918,914,916,915,915,914,915,911,914,911,916,920,918,918,920,918,916,918,915,915,916,916,916,921,923,922,921,923,922,921,922,921,921,923,926,927,929,928,928,929,924,924,926,925,926,926,929,928,931,929,927,923,925,923,922,920,919,919,921,920,920,919,917,913,909,906,905,903,903,902,902,902,902,897,899,898,895,895,891,890,891,891,893,892,895,894,892,890,886,883,884,882,882,883,884,886,888,887,882,880,879,878,875,874,877,877,879,876,878,879,875,875,876,874,872,869,870,871,871,875,877,873,871,874,873,868,868,867,869,871,872,874,877,877,874,873,872,870,872,871,870,871,872,875,878,875,875,875,873,873,871,869,872,873,875,876,879,877,878,874,873,873,874,873,873,874,877,877,878,880,880,879,881,879,877,875,876,875,877,876,880,880,881,878,878,879,878,876,876,875,877,880,881,883,882,882,879,880,878,878,878,881,880,881,882,884,885,883,884,878,879,880,880,879,881,881,883,883,883,883,881,881,880,880,880,882,883,884,888,888,886,886,882,882,881,879,880,882,884,885,886,883,883,883,886,882,883,883,885,886,888,888,891,891,893,892,889,892,893,892,893,896,897,899,900,900,902,903,900,903,901,900,898,899,900,903,904,905,902,904,901,897,896,891,894,894,893,896,898,898,898,897,896,895,893,893,895,894,896,895,901,902,901,901,902,903,907,910,916,930,948,971,999,1024,1047,1065,1079,1088,1095,1095,1100,1098,1095,1084,1072,1057,1047,1033,1016,1001,984,966,951,938,929,921,916,911,911,910,913,914,913,912,910,911,913,915,918,918,919,918,916,917,917,916,920,921,922,925,927,927,927,926,926,927,925,925,926,929,929,931,932,933,933,935,933,933,930,926,927,931,934,933,938,936,939,938,936,937,937,938,938,939,941,941,942,941,943,941,940,940,940,940,940,942,944,945,947,947,947,949,949,949,948,948,948,946,943,943,946,944,944,942,941,938,937,933,931,930,929,931,930,930,932,929,926,924,921,918,912,915,916,917,916,912,906,901,901,898,899,898,895,899,899,900,902,901,902,905,906,906,903,899,895,891,889,891,895,895,895,898,895,892,889,885,883,883,885,890,894,893,893,891,888,885,883,882,884,886,882,888,887,889,889,890,889,888,886,885,884,883,881,880,881,883,879,883,883,884,883,885,886,884,879,878,876,879,884,884,882,881,882,882,880,880,881,884,886,888,887,883,883,881,880,880,884,884,884,882,882,884,885,888,887,889,886,886,881,881,879,879,876,877,878,880,884,884,880,879,878,876,881,882,885,885,884,885,884,880,879,880,880,880,880,881,880,884,885,884,882,883,880,877,877,876,881,882,885,887,886,886,885,886,884,882,882,881,885,884,888,888,884,881,880,880,881,884,885,889,890,890,885,883,881,882,882,887,886,886,885,889,891,893,895,895,895,893,891,889,889,893,895,895,897,900,899,899,896,896,897,895,893,896,895,894,895,893,895,895,898,903,902,902,898,893,890,888,887,886,887,889,889,891,890,890,887,886,886,889,891,893,895,896,896,896,896,899,904,914,928,953,980,1009,1034,1058,1077,1087,1092,1094,1095,1095,1089,1080,1069,1056,1046,1031,1015,993,971,951,936,926,917,907,903,899,900,893,895,896,895,894,895,893,894,895,896,901,902,903,901,902,897,897,896,897,898,899,898,901,904,904,905,907,904,905,905,905,906,904,907,907,911,911,912,909,911,911,908,908,909,909,912,912,916,917,917,917,916,916,915,914,914,914,918,918,920,920,922,920,920,919,919,918,919,921,923,924,926,927,927,926,925,924,921,923,923,923,926,925,926,927,927,923,922,917,916,916,914,911,911,909,910,908,910,909,906,905,903,897,896,895,893,891,897,895,896,896,893,890,890,885,887,887,886,888,889,890,888,885,885,884,882,882,882,884,884,885,887,888,887,886,884,883,879,879,876,876,878,881,880,881,879,880,877,877,875,874,875,875,874,874,876,875,876,875,875,873,873,873,875,873,875,875,876,873,874,872,870,869,868,865,866,868,867,870,873,874,875,874,873,870,868,867,866,867,867,868,872,870,873,875,873,869,866,867,866,864,867,868,871,873,870,870,869,867,863,866,863,869,870,869,872,872,872,870,871,869,865,868,868,865,869,870,873,873,875,873,874,871,870,868,869,871,869,870,871,873,874,874,873,873,871,868,867,869,869,871,872,873,874,874,873,871,869,869,869,868,870,872,872,876,875,874,873,873,871,867,870,867,871,873,873,875,873,872,869,871,870,871,869,872,873,873,876,874,873,871,872,872,872,872,877,879,882,884,882,883,882,885,884,883,883,881,879,882,880,883,886,887,887,886,887,883,881,880,882,883,882,879,881,878,876,874,873,871,871,870,870,870,871,871,873,874,873,872,873,873,871,872,871,874,877,885,894,909,927,948,970,989,1009,1024,1034,1044,1055,1064,1074,1076,1073,1060,1039,1019,992,966,941,921,908,899,892,884,878,873,870,868,866,869,870,872,873,874,874,876,875,876,873,874,874,874,874,874,875,875,875,875,874,875,874,875,871,871,871,874,874,876,877,878,880,879,877,877,877,877,878,879,880,879,879,881,878,877,874,875,872,870,875,877,879,878,882,880,885,884,882,881,880,875,877,875,878,881,883,886,885,887,884,881,881,880,880,880,880,880,879,882,880,878,875,875,873,872,871,871,870,869,869,868,866,862,862,858,853,852,849,848,847,847,847,847,846,843,843,839,838,834,835,834,835,834,834,833,831,830,831,830,829,825,824,821,819,820,821,824,822,823,821,822,823,822,823,825,823,823,820,814,812,805,802,800,800,805,808,811,814,814,816,814,812,809,811,810,808,807,809,807,809,810,813,815,815,817,820,817,816,815,817,816,818,818,819,819,819,816,816,817,816,818,818,820,822,825,829,827,826,824,823,821,818,820,822,824,826,828,827,828,826,826,825,824,823,822,821,821,820,820,821,825,826,827,828,825,822,819,819,821,821,823,825,825,823,824,823,825,823,824,825,826,822,821,823,824,824,824,824,821,819,818,820,818,818,820,820,824,823,825,823,821,816,817,812,813,815,815,819,822,827,826,825,820,816,814,814,816,816,816,817,816,817,818,818,818,818,816,820,821,824,826,830,833,833,832,829,829,827,823,821,822,825,826,829,831,831,832,830,831,828,829,829,828,828,828,825,826,824,822,819,816,814,813,815,814,816,819,820,820,821,821,817,816,814,813,813,814,820,825,834,847,862,880,902,922,941,959,970,977,983,990,1000,1010,1017,1018,1010,994,973,950,927,904,886,868,858,848,839,834,827,823,818,823,824,827,830,830,832,833,832,831,832,830,830,831,830,830,829,831,832,834,833,833,832,833,831,830,829,831,834,834,837,839,840,841,841,843,841,838,837,836,838,840,841,842,842,843,841,841,843,840,841,842,843,845,845,847,846,849,846,849,848,847,849,847,847,847,851,852,853,853,854,850,850,848,849,851,851,852,855,859,859,857,854,851,849,844,846,846,848,846,846,845,844,844,841,842,838,834,833,833,833,831,830,831,827,824,824,822,820,818,820,818,819,822,822,822,820,818,816,814,814,814,814,813,812,814,819,816,812,809,809,809,809,810,810,810,808,808,807,809,806,808,808,804,803,801,802,803,803,801,802,804,805,804,803,801,800,797,796,795,797,800,802,803,805,807,808,808,802,800,799,800,801,803,802,805,806,808,807,807,807,804,800,801,803,805,807,810,809,809,808,810,808,811,809,810,808,810,812,815,811,815,812,810,806,804,805,807,809,809,809,812,814,815,817,817,815,812,808,808,809,811,813,816,818,819,818,819,819,816,815,814,813,814,816,816,815,816,813,815,813,812,811,813,812,814,813,815,819,818,818,818,817,815,814,812,813,816,816,820,815,816,819,819,818,818,815,814,814,813,818,824,825,824,823,823,821,820,817,814,816,817,819,828,832,835,835,838,838,839,834,829,830,831,832,833,833,833,831,832,832,832,832,830,833,833,836,841,841,838,838,834,831,829,827,821,820,818,819,818,822,822,823,824,828,832,832,831,830,827,825,821,818,821,825,833,838,845,854,869,890,911,930,947,962,973,982,988,995,1002,1011,1017,1019,1017,1006,989,971,949,928,908,893,883,874,864,856,844,839,836,835,835,836,833,829,825,828,830,833,834,836,840,839,847,851,853,853,847,841,836,837,840,842,841,840,839,840,839,835,833,832,834,840,846,848,849,850,851,851,849,849,848,846,846,845,847,849,851,849,848,847,848,850,848,851,850,851,850,852,853,855,855,857,855,854,854,856,858,862,861,862,861,855,856,859,857,859,858,859,859,859,858,858,861,861,861,859,855,851,851,852,849,847,848,848,852,852,852,849,845,839,838,838,840,842,839,834,834,832,829,825,824,822,824,825,828,823,821,815,814,813,817,821,818,816,812,808,806,808,814,814,819,816,815,813,812,815,813,807,807,803,802,804,807,808,808,806,802,802,805,802,801,801,802,805,810,815,815,811,806,798,796,794,796,797,797,798,800,800,800,802,803,802,803,801,798,794,790,790,794,797,801,805,810,809,806,798,796,796,797,800,804,805,806,805,801,800,800,799,801,805,810,812,813,813,808,806,799,799,799,800,804,805,809,812,812,811,808,806,801,801,803,803,806,807,809,807,810,811,811,813,813,812,809,804,802,805,808,813,817,814,810,804,801,798,798,802,805,807,810,811,813,812,816,817,817,811,808,800,798,800,806,811,820,819,815,811,805,800,797,801,803,808,810,813,815,815,816,816,813,812,813,813,814,814,815,816,820,821,823,824,822,823,822,820,820,821,823,824,824,826,825,825,822,821,821,821,821,821,822,819,818,817,814,818,815,815,814,812,810,811,810,811,813,814,814,812,809,809,807,807,812,814,817,823,825,828,832,841,857,876,897,919,938,953,967,973,978,980,988,992,997,994,983,965,944,924,903,883,868,858,847,841,831,822,818,813,812,815,820,820,821,821,818,815,815,815,819,817,819,821,823,825,826,824,827,827,828,827,823,820,821,821,822,821,827,829,831,831,832,830,829,830,829,831,830,834,838,836,834,837,836,835,835,832,833,836,837,839,841,840,840,840,840,839,836,836,837,839,843,847,848,848,848,849,847,849,850,849,848,848,849,850,855,856,856,855,853,854,851,851,848,849,849,850,852,851,851,850,847,843,839,837,836,835,834,836,837,834,831,829,827,825,823,818,819,821,820,820,820,818,817,813,814,812,810,810,809,809,810,809,814,814,811,811,808,808,806,805,804,804,804,805,805,806,806,807,803,804,802,800,799,800,804,804,805,803,803,799,799,797,798,797,798,798,800,803,804,803,803,803,799,799,800,797,801,801,800,801,803,803,804,805,803,802,803,802,802,803,803,806,808,808,808,810,809,806,806,805,805,807,808,806,811,811,813,809,808,806,806,807,807,807,808,810,812,813,815,811,812,811,810,808,807,809,812,812,815,813,813,814,813,814,811,810,810,813,814,814,814,814,812,812,809,811,814,813,812,814,815,818,818,818,818,819,815,814,814,813,814,815,819,818,822,823,819,819,818,820,817,816,814,815,819,821,821,822,821,822,820,821,818,816,818,819,823,826,831,834,834,833,831,829,830,828,833,834,834,834,835,835,835,834,831,831,832,831,832,832,833,833,834,834,831,832,827,826,823,821,823,824,828,828,829,828,831,829,831,830,831,828,831,833,838,841,846,852,861,876,894,917,940,962,981,995,1002,1006,1012,1018,1022,1020,1012,1002,987,972,951,935,921,902,892,881,871,860,850,842,837,834,836,837,840,844,846,848,850,847,844,843,842,841,842,843,845,848,850,852,853,850,850,849,846,846,846,848,850,853,854,856,857,857,856,855,854,855,856,857,858,860,860,861,860,860,858,858,858,859,858,857,861,862,865,867,867,867,866,866,862,863,863,865,869,873,873,875,875,875,872,871,871,871,873,874,873,875,874,875,875,873,873,871,869,867,866,865,865,864,864,862,858,855,853,848,847,845,842,843,842,842,839,839,838,837,834,832,830,831,830,829,832,831,833,834,835,833,832,829,827,826,825,826,828,826,824,827,828,828,825,824,824,819,823,823,823,824,824,825,823,820,822,821
