928,926,926,923,920,917,919,914,909,906,902,892,886,880,875,871,871,870,872,871,868,867,861,856,856,853,848,847,850,853,854,854,853,849,849,846,846,845,842,845,846,846,848,848,849,846,846,842,844,841,841,840,843,847,848,847,848,852,848,845,842,842,844,843,847,847,849,851,853,853,853,848,848,847,846,848,849,852,850,848,848,852,848,846,845,843,842,844,843,846,847,849,849,847,847,845,841,841,840,841,839,838,841,842,841,842,840,839,836,836,835,832,837,837,839,840,839,841,833,834,834,831,831,831,833,836,836,837,834,835,838,833,832,827,830,830,830,833,835,838,838,838,838,835,831,829,830,833,831,835,834,835,837,836,834,831,830,831,828,832,835,834,834,838,838,838,834,830,830,828,827,829,829,832,833,834,831,833,832,829,828,828,827,826,828,831,832,835,837,837,837,833,833,828,828,825,827,827,833,835,835,835,833,831,828,827,831,829,833,833,834,835,836,836,839,837,838,835,836,839,841,848,851,855,854,854,854,850,855,860,864,870,875,876,876,877,875,870,865,861,861,862,858,857,853,851,849,843,840,836,831,829,828,824,822,818,819,823,821,823,823,825,823,821,819,816,821,821,822,826,827,827,826,827,825,824,825,824,825,824,826,828,828,832,831,834,833,831,827,829,833,834,835,835,838,848,858,883,917,962,1011,1064,1121,1180,1229,1258,1253,1208,1131,1035,925,823,740,692,677,689,714,739,764,783,789,797,802,808,814,823,829,831,831,833,835,832,832,832,834,832,830,830,829,830,831,834,839,841,837,837,834,833,830,828,830,832,833,831,834,835,835,833,833,829,829,827,827,827,829,831,831,836,834,833,834,834,832,833,831,835,835,836,835,838,841,840,840,840,841,840,843,843,847,849,854,856,856,861,860,857,860,860,864,868,872,876,880,884,888,890,889,891,895,893,894,896,899,906,911,914,916,915,917,913,914,913,910,909,908,904,906,905,900,897,890,885,878,869,863,863,860,862,859,858,853,851,845,844,842,839,839,841,842,841,838,841,842,840,841,838,835,834,829,831,829,834,835,837,841,840,840,838,835,831,833,833,833,836,838,843,841,843,844,838,836,834,836,836,841,838,843,844,847,848,846,841,845,846,842,844,846,847,849,851,851,852,846,848,846,842,842,840,842,842,844,845,847,845,845,841,839,840,839,839,839,840,842,841,841,841,839,834,838,837,832,832,836,834,835,837,838,837,837,835,833,835,832,832,834,836,838,836,838,837,834,835,832,832,831,829,830,832,833,838,839,835,833,834,833,829,827,828,832,833,832,836,833,834,837,834,836,833,829,827,829,835,836,837,838,837,836,835,833,832,830,831,834,835,838,838,837,837,833,833,835,833,831,833,834,835,838,841,841,840,840,838,838,836,837,833,836,842,841,843,844,845,843,841,839,841,841,841,845,850,853,856,862,861,862,862,860,863,866,870,873,875,878,877,879,874,871,867,861,862,857,858,860,862,862,862,852,849,842,837,833,831,828,826,826,828,829,829,829,830,830,828,824,824,824,822,824,825,828,829,825,828,822,824,823,822,822,823,824,823,826,828,828,829,830,833,832,834,834,832,837,838,846,851,864,890,931,975,1025,1080,1138,1194,1249,1270,1255,1200,1108,988,865,760,696,676,693,730,770,798,813,818,819,818,822,823,828,829,828,830,832,833,830,835,835,837,837,837,834,834,830,828,831,834,835,837,840,840,838,838,835,835,834,831,836,837,838,840,841,840,838,838,837,837,838,836,835,837,838,842,846,844,842,840,840,838,838,838,841,845,846,850,852,850,852,851,853,852,853,854,853,858,861,864,869,871,875,877,878,882,884,884,890,896,898,904,908,911,913,911,915,916,919,920,924,929,932,935,937,937,935,930,931,928,924,923,924,919,919,914,910,902,899,890,887,882,876,869,864,864,860,859,860,856,856,849,847,846,844,842,842,842,842,842,843,843,843,842,837,834,834,834,836,835,836,839,839,840,838,838,836,835,832,836,836,836,839,842,842,840,841,835,834,838,840,839,836,840,840,841,844,845,846,843,841,838,839,838,840,842,843,847,850,849,847,845,843,842,841,844,841,843,844,845,848,848,847,844,841,837,838,835,840,843,841,843,847,845,845,843,841,839,840,839,839,839,839,842,845,843,842,840,837,835,830,834,835,836,834,839,838,840,839,837,835,834,831,833,834,836,838,841,838,839,837,836,834,832,828,827,831,833,836,837,837,837,837,833,835,832,832,827,825,828,832,835,836,833,839,836,835,833,831,831,834,836,836,840,841,837,838,835,837,834,831,830,831,833,835,836,839,838,838,837,833,834,831,829,828,831,837,839,841,837,840,837,836,834,831,836,836,835,837,838,839,839,838,837,837,831,833,831,835,835,840,842,842,841,843,841,842,839,837,837,838,840,844,845,843,844,839,841,838,835,833,833,834,836,840,843,844,840,842,839,835,838,838,837,838,838,841,844,845,846,844,843,840,838,835,835,835,839,843,842,844,845,843,843,841,838,839,839,839,841,841,843,846,846,845,844,843,841,840,839,842,845,845,844,844,848,846,845,844,839,842,845,846,847,852,862,868,868,868,865,864,866,865,871,875,880,889,888,889,886,884,879,874,873,871,867,869,869,869,868,866,862,854,850,844,839,836,833,833,833,834,835,836,835,835,834,834,832,830,828,831,830,833,835,836,837,836,833,835,832,831,833,831,836,838,840,839,841,842,839,838,838,838,839,840,846,848,854,860,874,897,933,975,1023,1070,1124,1180,1231,1263,1268,1234,1163,1069,960,848,760,708,701,727,763,799,821,830,832,827,825,823,824,828,834,834,841,842,841,842,840,841,838,836,839,835,837,836,838,840,841,841,840,840,840,839,837,835,834,836,838,840,840,843,846,844,841,841,839,838,838,838,839,840,843,845,846,845,846,844,839,841,838,839,847,844,847,851,848,853,853,852,850,853,851,855,860,863,863,868,870,873,877,876,877,878,881,885,888,892,898,903,907,910,911,911,912,913,918,921,924,932,933,935,937,940,936,937,937,931,930,933,932,930,927,924,921,919,908,901,895,890,885,882,878,878,877,874,871,866,863,857,857,853,852,852,850,851,851,854,849,853,852,847,846,842,840,844,846,844,847,847,848,849,847,846,842,842,841,841,844,849,852,850,850,852,850,849,840,840,840,844,843,846,847,849,849,850,850,847,847,842,842,839,845,847,849,848,848,847,846,844,845,843,840,839,843,842,842,844,846,844,845,842,839,838,837,835,835,842,841,843,842,838,835,831,829,831,831,832,833,836,836,836,835,835,831,832,830,828,828,827,832,833,833,838,837,835,834,831,829,825,825,826,830,831,834,833,834,834,829,827,829,828,826,827,828,828,827,828,826,825,823,821,822,822,823,826,829,832,831,833,829,823,821,818,819,820,819,816,818,818,819,816,821,823,833,837,835,829,819,814,811,810,814,816,820,821,819,817,816,814,813,816,818,823,822,823,824,823,819,820,816,817,815,815,819,821,824,823,824,822,819,818,817,818,821,822,824,822,826,829,832,832,837,836,834,828,826,825,832,838,849,859,863,866,866,865,862,859,857,853,850,851,851,849,846,844,839,838,836,835,832,829,820,812,812,810,812,818,821,823,822,822,815,813,811,810,813,817,821,823,823,820,819,816,812,805,799,801,803,812,826,841,839,834,826,814,808,802,801,806,814,826,837,840,842,838,826,818,821,842,879,933,996,1063,1129,1191,1231,1244,1217,1162,1079,971,853,749,679,648,649,668,697,717,735,742,750,759,765,775,783,788,789,788,783,778,770,765,763,767,772,786,797,801,805,800,797,792,784,780,776,773,768,764,766,766,769,769,768,767,766,763,765,764,770,774,770,766,755,740,725,713,714,718,729,738,744,738,728,716,709,709,724,736,744,740,733,723,715,711,711,709,709,705,705,697,690,683,680,679,677,680,679,680,681,679,685,681,673,660,642,625,610,603,600,604,606,614,619,626,629,635,638,640,638,636,629,634,639,644,647,648,643,641,633,625,617,609,604,598,590,583,571,564,562,562,561,558,558,557,561,556,547,533,521,513,511,511,511,519,527,529,530,531,530,531,525,516,511,507,509,514,525,533,541,540,533,524,519,514,512,511,514,514,512,505,498,489,494,502,514,520,526,526,523,520,517,513,512,514,508,507,504,504,505,508,508,510,511,512,514,515,513,512,506,499,495,505,511,518,522,520,515,513,510,510,514,513,511,507,508,510,515,523,525,524,519,516,515,512,518,522,526,523,518,513,509,510,512,513,514,512,509,508,511,509,511,513,513,512,512,509,508,508,507,511,512,515,517,521,530,538,537,529,510,507,509,517,526,531,531,532,534,534,537,538,540,538,534,529,526,519,519,526,533,545,561,568,571,570,565,559,554,549,550,554,557,560,563,566,569,572,571,575,572,579,579,584,589,592,592,595,597,598,602,604,607,610,611,614,617,619,619,612,609,606,610,611,613,605,603,599,596,601,603,609,610,607,609,604,597,594,594,595,596,597,598,600,602,603,601,598,596,597,599,602,604,609,613,619,624,621,615,613,608,610,617,621,626,631,623,626,622,619,618,622,628,635,645,654,670,693,731,773,823,871,927,988,1048,1085,1084,1054,985,885,763,643,547,492,488,518,554,597,623,635,636,638,637,636,641,647,651,658,658,656,656,652,654,656,657,658,653,650,648,647,650,657,661,667,673,685,696,698,697,694,688,683,673,666,659,657,659,663,669,672,673,674,669,667,667,665,668,673,679,684,690,690,689,683,686,683,684,690,696,696,694,697,694,692,694,697,704,708,719,720,726,728,730,731,727,728,729,727,726,728,732,739,751,760,763,773,779,782,782,769,758,752,751,760,779,795,800,806,805,803,799,795,789,785,781,774,773,775,778,773,770,772,778,783,773,753,734,722,715,719,722,725,731,734,733,727,726,723,723,724,725,726,728,733,732,733,733,730,726,727,728,725,724,727,733,735,737,735,735,734,736,734,734,734,741,744,748,749,752,752,752,748,748,747,748,748,751,752,754,758,760,763,761,760,760,759,757,756,758,756,754,756,754,761,774,779,784,788,784,776,765,761,758,762,764,767,769,763,765,764,767,770,774,772,775,774,774,774,773,773,771,770,767,767,765,768,769,773,776,776,771,763,752,747,748,752,761,769,779,786,796,796,794,785,781,787,789,784,772,760,755,756,761,771,781,788,784,783,777,774,772,774,778,779,786,788,790,788,792,793,795,795,795,800,803,807,807,806,803,801,799,803,810,818,826,824,822,820,818,827,834,838,842,841,835,826,816,809,806,807,807,811,807,807,800,797,795,794,791,790,789,788,790,789,787,785,789,792,794,794,794,794,794,788,784,777,777,783,789,796,799,803,809,806,807,801,799,797,802,803,802,799,796,794,795,804,809,821,827,841,861,893,937,989,1044,1107,1173,1227,1251,1234,1181,1090,979,863,763,692,656,653,678,713,744,767,779,784,788,793,797,798,802,810,815,816,816,813,811,812,811,812,814,811,814,815,819,821,824,826,830,832,831,828,826,824,824,826,827,827,834,836,838,837,837,838,836,834,833,831,834,837,838,843,840,838,840,841,837,838,838,838,842,845,847,849,854,855,856,857,859,858,861,863,865,867,871,875,879,884,889,892,893,896,897,898,906,911,915,925,927,932,938,940,944,945,951,952,952,954,962,968,981,989,993,991,984,975,970,973,971,974,973,970,966,962,958,958,955,952,948,942,938,933,929,927,926,928,930,930,930,924,921,917,914,912,908,910,913,912,915,912,909,902,899,901,904,910,917,920,921,927,925,919,915,910,914,915,919,924,927,929,934,937,939,942,944,944,943,942,938,942,944,948,954,953,950,949,946,947,947,949,949,953,962,968,969,968,964,966,964,967,971,976,984,987,987,991,991,988,984,984,982,981,986,991,995,999,1003,1001,1003,1003,1001,1001,1000,1003,999,999,1001,998,998,1000,1001,1001,1000,1000,1002,1002,1000,999,999,998,999,997,1000,999,999,996,993,985,985,979,985,984,987,986,992,992,992,990,987,987,984,988,991,997,1000,1002,1004,1008,1002,1004,1002,1008,1009,1011,1010,1015,1013,1013,1010,1008,1006,1002,1000,1002,1000,1005,1004,1000,991,989,982,976,974,974,976,978,975,973,969,965,957,955,953,952,952,952,952,952,951,955,958,963,971,969,966,963,960,957,956,963,967,972,970,970,967,970,976,978,975,974,972,974,976,976,977,975,978,982,982,986,995,1018,1055,1108,1165,1226,1291,1356,1407,1436,1428,1387,1312,1207,1079,956,859,808,798,822,864,899,925,935,939,942,946,953,962,970,978,983,985,986,986,983,981,979,978,978,979,983,981,986,987,992,992,991,986,983,984,984,986,982,985,982,985,988,991,990,994,994,988,989,990,988,990,992,996,997,1000,997,996,995,995,992,989,992,994,998,998,1005,1006,1004,1005,1002,1002,1003,1003,1004,1008,1008,1012,1019,1025,1028,1027,1026,1021,1018,1023,1027,1031,1036,1041,1044,1052,1052,1055,1058,1060,1061,1066,1069,1071,1075,1078,1079,1084,1087,1086,1087,1087,1083,1089,1090,1089,1087,1087,1084,1086,1080,1070,1062,1053,1042,1037,1033,1030,1023,1023,1021,1017,1016,1012,1015,1012,1016,1023,1026,1026,1018,1001,985,976,970,971,972,971,975,980,980,986,988,986,987,987,984,976,970,967,965,964,969,973,979,979,974,965,965,962,963,960,956,956,961,961,957,954,949,953,958,962,965,962,962,961,957,958,965,969,970,962,954,948,953,969,989,998,997,989,970,956,946,946,952,964,974,979,975,967,958,953,954,957,962,966,965,966,962,956,952,952,956,967,978,991,993,990,982,974,972,971,973,972,973,972,974,976,977,979,979,982,980,977,974,970,969,969,970,971,974,977,977,979,974,972,970,968,965,964,963,962,960,961,961,957,954,955,952,953,952,948,952,954,955,960,960,966,969,966,964,958,954,952,953,959,959,960,956,956,950,951,948,945,944,947,944,943,944,942,935,928,924,920,918,919,915,917,917,918,920,921,922,922,922,924,922,922,921,922,922,926,926,929,932,931,929,930,931,929,930,930,932,935,939,942,943,945,944,942,945,944,946,946,950,956,957,963,968,980,1002,1038,1081,1127,1176,1229,1286,1343,1375,1377,1333,1252,1134,1006,885,805,782,795,835,882,915,934,944,947,948,949,949,949,950,951,949,951,952,955,955,956,956,954,954,953,950,951,949,953,955,957,958,957,954,952,946,945,945,947,949,951,950,953,950,951,953,950,948,945,942,947,946,949,954,953,950,954,951,946,947,941,944,944,950,954,958,963,961,961,958,960,960,960,962,962,962,968,970,976,976,980,981,982,984,985,991,989,992,996,1006,1008,1011,1012,1015,1015,1019,1020,1023,1024,1031,1030,1037,1038,1040,1040,1038,1037,1034,1031,1027,1022,1019,1018,1012,1010,1006,1001,993,983,973,963,956,953,955,959,967,974,972,967,959,945,936,935,935,938,941,951,956,960,962,958,945,936,927,918,920,931,946,957,963,961,954,946,941,936,934,933,936,942,947,951,952,949,950,946,943,937,935,932,931,930,934,934,934,936,936,937,943,952,961,966,964,952,942,935,928,927,929,937,947,956,961,959,955,947,940,937,938,940,943,943,944,941,939,934,933,933,932,931,936,938,936,936,932,931,930,927,924,923,921,926,927,930,928,927,925,925,922,925,922,920,923,923,924,925,929,926,925,926,923,922,918,917,920,920,921,924,923,920,920,917,913,911,911,913,911,915,915,919,917,918,917,917,911,911,911,910,912,912,915,917,918,918,916,912,912,913,913,912,913,914,916,918,918,916,917,918,926,927,929,930,934,938,940,944,946,951,949,948,941,939,934,932,931,930,930,935,937,932,930,926,921,918,912,908,897,900,898,903,901,897,894,892,892,892,891,891,891,895,898,900,898,897,895,895,895,893,892,895,896,900,898,904,904,904,901,901,899,901,898,899,902,906,911,910,913,915,916,917,916,923,933,959,998,1044,1092,1143,1198,1250,1299,1326,1318,1266,1183,1072,953,848,773,740,747,780,819,849,867,873,876,880,887,896,903,911,914,913,911,905,902,905,905,905,906,906,909,912,913,912,911,911,907,910,907,907,908,907,911,912,912,911,910,910,909,911,905,906,908,907,912,912,911,914,914,912,908,907,906,907,911,910,917,919,913,917,919,916,916,920,922,923,925,930,934,938,938,940,941,939,940,944,947,949,952,956,963,967,972,975,979,980,980,985,983,988,991,994,999,1003,1008,1006,1008,1007,1006,1002,1002,996,994,993,991,991,989,982
