808,809,810,808,807,805,806,807,808,810,809,811,809,810,807,810,808,807,808,808,810,812,812,815,815,813,812,809,809,808,809,812,815,817,817,819,816,818,815,814,813,813,815,816,817,819,817,820,818,817,818,819,816,816,813,816,817,819,820,821,820,820,818,820,818,818,821,818,817,818,821,823,823,821,820,820,822,820,819,821,821,822,825,825,825,825,822,820,823,820,824,824,826,827,829,831,830,832,831,832,832,835,834,833,835,836,839,842,844,843,841,842,837,834,834,835,837,838,841,844,841,840,838,836,832,830,831,829,828,830,829,830,828,827,828,827,826,824,827,823,828,828,832,834,835,834,835,836,840,850,860,878,898,922,946,963,982,990,995,999,1004,1011,1020,1021,1019,1011,995,982,963,944,926,909,892,876,867,859,853,846,844,840,836,836,835,834,834,834,835,835,838,840,843,843,843,844,841,840,840,839,839,841,845,845,849,849,850,848,848,849,847,848,848,850,853,854,856,856,855,853,855,856,853,853,852,852,853,855,857,859,860,860,859,858,859,856,857,856,859,859,861,861,866,866,865,865,862,864,865,865,868,867,869,869,870,870,871,868,867,866,869,871,871,872,874,874,873,871,870,868,865,864,862,861,860,860,860,860,858,855,853,849,845,842,839,840,838,839,837,839,839,839,835,836,831,831,831,834,832,833,834,836,834,833,833,831,829,829,829,829,829,830,832,832,832,833,829,827,827,823,825,824,824,825,828,827,826,824,822,821,819,818,818,817,819,820,821,822,821,819,816,818,816,813,813,816,816,819,819,819,820,819,818,818,818,817,815,817,820,821,822,824,822,824,821,819,818,817,817,819,820,823,822,824,823,821,820,820,819,820,821,822,823,825,825,826,824,825,824,824,822,821,823,825,826,828,828,830,831,828,827,826,825,827,827,829,829,830,832,832,831,832,829,830,829,827,828,827,828,830,830,832,831,832,833,828,827,826,827,831,831,832,836,835,834,834,832,831,829,827,831,830,830,835,837,838,839,837,838,836,837,835,835,839,843,846,848,851,853,851,851,850,849,848,849,853,855,854,854,854,855,855,851,852,850,850,849,852,851,854,851,854,850,848,846,840,840,840,840,837,840,843,843,845,845,845,842,841,840,840,843,845,851,852,857,867,876,890,910,933,956,979,1002,1020,1033,1044,1049,1057,1061,1058,1050,1036,1020,1004,988,970,953,935,919,906,893,882,871,862,856,849,850,848,850,853,854,856,857,854,855,857,857,858,861,859,862,862,863,864,865,865,862,865,865,865,865,867,869,870,871,872,871,870,869,870,869,870,871,870,872,872,874,878,880,879,878,880,876,874,872,875,877,878,880,882,882,881,879,880,877,874,874,881,884,891,892,894,891,891,888,885,884,883,883,883,881,882,884,883,883,882,880,880,876,877,877,878,877,875,876,873,871,870,869,866,864,860,862,859,858,856,854,856,853,850,848,845,848,845,843,841,841,840,841,842,840,840,839,837,833,832,831,832,834,837,838,838,838,835,835,834,832,831,831,831,831,832,831,832,834,834,832,827,828,827,829,828,829,829,827,826,825,824,824,823,821,819,821,823,821,824,824,825,822,823,822,822,820,818,818,820,818,822,827,826,825,827,826,826,824,822,822,823,825,822,825,827,827,828,828,827,823,825,823,826,825,827,827,828,832,834,834,833,828,826,825,821,823,824,828,830,831,833,832,832,831,829,829,829,828,830,833,830,834,834,835,833,831,830,831,832,834,833,833,834,835,836,835,833,831,832,832,833,835,836,837,839,839,838,836,836,832,831,829,832,835,837,840,840,840,840,840,838,838,835,838,838,838,840,843,843,845,847,850,853,848,848,845,846,851,854,856,858,857,857,854,849,849,848,848,848,851,853,854,858,855,854,853,853,850,847,846,846,843,842,844,846,848,846,839,839,837,836,839,839,841,845,846,850,852,854,854,858,865,878,895,916,941,969,996,1018,1033,1046,1054,1062,1065,1064,1055,1041,1026,1013,997,985,969,949,929,911,896,885,876,870,864,858,855,854,853,858,860,861,859,858,856,854,856,858,860,859,861,861,862,863,862,860,861,860,862,862,863,866,865,862,864,863,864,863,861,860,862,861,864,871,874,872,869,868,865,867,866,868,870,870,875,875,876,875,875,874,872,874,873,871,872,877,880,880,879,877,880,880,879,879,879,880,883,882,885,890,891,889,889,888,888,886,881,882,880,884,887,889,891,891,888,886,884,880,876,877,877,878,877,875,875,872,872,870,869,866,863,858,858,857,858,861,861,858,856,854,852,850,850,852,854,856,857,856,857,857,855,852,853,856,851,852,852,855,853,855,857,859,857,856,854,854,855,855,855,852,849,851,850,851,853,854,853,851,850,847,848,849,849,849,849,849,850,848,845,845,844,846,846,846,849,851,850,848,847,846,844,844,843,844,845,844,843,846,845,843,845,843,844,846,845,843,845,844,845,846,847,846,841,842,841,842,841,842,846,847,846,846,845,844,842,841,840,843,846,845,846,843,842,843,843,845,846,843,840,840,842,840,841,842,842,844,844,844,844,844,845,844,844,843,844,845,846,848,850,851,849,848,848,847,846,846,846,848,848,851,850,849,850,847,848,849,850,846,850,853,854,856,857,855,855,853,852,849,848,850,851,851,852,856,857,858,857,857,860,859,860,863,865,864,868,868,864,867,867,868,866,862,862,861,865,866,867,870,868,867,865,866,863,859,859,859,861,865,865,867,865,864,860,857,850,849,851,851,855,858,858,860,859,857,856,855,856,855,858,860,865,872,881,895,908,934,959,984,1006,1027,1040,1049,1056,1063,1065,1063,1055,1042,1027,1013,993,973,954,934,919,904,897,891,882,874,870,860,860,854,856,860,861,864,869,870,870,866,861,862,862,860,861,861,862,864,867,868,867,865,866,866,863,864,862,863,864,864,866,867,866,868,872,869,870,868,868,868,868,868,870,871,875,873,871,871,872,871,870,870,872,874,877,879,880,882,879,878,875,874,874,873,874,878,879,882,882,881,881,879,879,878,877,878,881,881,882,883,881,882,883,881,875,874,870,869,869,866,865,866,866,867,866,864,862,860,855,853,851,850,849,851,851,848,847,844,842,841,839,839,840,845,845,844,844,842,840,838,841,841,838,837,837,837,839,842,843,842,838,836,834,833,831,831,834,832,832,834,834,834,831,830,828,827,825,828,829,830,829,827,826,831,830,830,828,827,822,821,822,823,827,825,825,826,828,827,825,824,821,821,821,820,824,828,830,831,831,829,828,825,825,823,823,824,827,828,829,831,829,826,826,826,826,826,829,829,830,832,830,830,828,826,827,824,826,827,829,832,832,835,835,832,831,831,833,830,831,830,831,832,832,834,833,837,837,834,833,828,829,828,830,833,837,840,840,835,836,836,832,832,834,835,834,832,832,834,834,837,838,836,835,833,831,833,836,841,838,841,842,839,838,838,836,833,836,834,837,839,838,841,841,842,845,847,850,851,849,848,850,852,850,854,854,854,854,853,851,848,844,845,849,851,855,858,857,859,855,850,845,844,845,845,843,846,844,846,846,844,844,841,841,842,842,843,843,841,844,847,847,845,846,848,849,852,852,857,866,878,897,920,944,972,993,1012,1023,1025,1032,1035,1038,1036,1026,1014,1002,980,959,936,918,903,892,880,874,869,862,855,850,846,847,844,844,845,848,849,851,851,853,854,854,853,854,854,858,856,854,852,852,849,850,853,858,859,859,858,856,857,856,858,861,863,864,866,862,861,862,862,865,861,861,860,858,859,860,862,863,863,864,862,865,866,868,867,865,866,867,869,872,872,871,869,868,869,869,869,873,877,877,877,877,879,877,875,875,871,869,870,870,875,878,877,878,876,872,871,867,868,868,871,868,869,870,868,867,861,860,855,850,851,850,850,849,849,849,849,848,846,844,841,840,836,835,835,837,840,841,843,843,842,839,835,834,834,830,833,835,835,835,835,833,832,833,829,828,828,829,830,830,830,829,829,830,829,826,825,824,821,819,819,819,820,823,826,826,822,823,824,821,819,817,812,813,816,815,816,821,822,822,819,819,818,816,818,818,819,821,819,822,821,819,820,818,817,817,816,819,819,819,821,826,826,829,829,829,827,822,823,821,821,822,824,822,825,828,830,830,827,825,825,825,824,824,825,828,831,830,831,829,825,824,824,825,827,832,834,836,833,832,832,828,827,829,829,830,833,834,836,836,836,834,831,829,829,829,831,831,833,834,834,835,834,834,833,831,831,830,829,830,834,835,837,838,836,836,837,837,837,836,836,835,841,845,850,850,851,849,846,844,846,848,851,854,855,855,853,856,855,854,854,854,853,853,853,853,855,853,854,854,855,854,850,849,845,844,843,843,846,850,849,851,852,851,846,846,847,850,851,851,853,859,865,873,883,898,913,933,953,975,995,1014,1024,1034,1044,1049,1055,1051,1040,1027,1011,992,975,956,939,924,912,902,891,880,868,861,854,852,855,858,860,864,866,868,865,867,865,865,864,862,862,861,863,867,867,868,870,868,869,867,867,869,869,871,871,871,874,876,876,879,878,879,875,877,875,875,875,877,879,880,883,880,879,878,880,880,881,881,881,880,884,884,884,883,882,884,881,881,882,882,883,883,880,885,888,891,891,891,888,886,884,886,890,890,890,890,890,886,887,886,882,882,881,882,882,882,883,880,881,880,875,869,865,866,867,864,861,863,864,862,860,856,852,850,848,846,845,844,844,847,849,851,849,849,847,845,842,839,838,842,843,843,848,849,847,845,845,843,841,841,840,841,843,842,843,845,841,839,838,836,836,835,834,834,834,833,833,834,833,833,831,832,831,831,829,825,827,828,831,831,832,832,832,832,830,829,827,828,829,831,832,831,831,832,830,827,828,826,828,830,830,831,832,833,833,832,831,831,831,828,826,827,828,829,833,833,833,834,833,831,829,827,827,828,829,831,835,837,838,838,836,835,832,830,830,828,831,834,836,837,836,836,834,834,831,831,830,833,836,839,840,839,837,835,832,830,832,833,835,837,838,841,839,840,842,839,837,836,835,833,836,839,840,838,840,842,842,843,842,840,839,838,839,837,841,843,844,846,847,847,844,842,840,838,841,841,841,843,844,845,845,846,850,851,852,855,856,857,856,853,855,857,858,858,859,858,857,855,854,854,854,855,855,857,859,858,857,853,853,853,851,850,850,849,849,851,848,848,846,847,844,848,848,848,850,850,850,850,851,853,854,859,862,866,876,887,901,920,940,962,981,998,1010,1019,1021,1025,1030,1033,1033,1026,1017,1003,985,965,941,921,904,888,882,875,867,859,858,853,852,856,856,858,858,856,856,855,856,860,860,860,861,860,857,861,861,860,861,860,860,861,866,867,868,868,868,869,870,867,865,866,864,867,869,873,872,874,872,869,871,869,869,872,874,874,878,878,875,876,874,874,874,871,872,874,878,878,880,881,880,881,880,881,880,879,879,882,885,886,887,887,887,886,883,883,883,881,881,879,879,880,881,880,881,878,877,876,873,870,869,869,868,866,863,863,862,861,859,855,851,850,848,846,848,849,849,847,844,843,842,840,837,839,838,839,843,843,842,843,843,840,841,838,836,838,838,838,837,834,838,841,839,839,839,837,835,830,831,832,828,831,835,838,839,835,835,831,828,826,822,821,822,827,830,832,831,829,828,824,825,824,824,824,825,827,828,827,827,827,825,824,823,823,826,825,826,827,827,831,828,828,827,827,825,824,823,822,823,825,829,832,831,830,830,829,828,826,826,828,828,830,831,832,833,831,830,827,825,822,819,823,830,832,832,834,833,832,829,827,826,827,828,832,833,833,832,835,833,832,834,833,831,830,830,832,833,831,835,835,837,837,835,835,833,832,833,832,832,835,837,838,837,838,837,837,836,833,834,831,832,832,833,836,836,837,836,835,837,836,836,835,836,837,838,839,840,841,840,838,838,837,840,842,847,849,851,848,846,847,849,847,848,848,852,852,850,852,854,855,854,853,853,853,850,850,848,849,850,849,848,847,847,845,844,840,838,835,838,838,839,845,846,848,849,850,847,847,848,849,849,852,862,871,886,906,930,955,977,997,1013,1024,1034,1039,1044,1049,1049,1044,1034,1017,1001,983,963,943,924,908,895,882,876,869,862,858,855,853,853,856,854,852,854,858,859,862,861,862,860,860,857,856,858,859,860,859,862,867,862,864,866,865,862,862,862,866,867,867,868,869,869,868,869,867,868,869,867,869,872,874,873,875,875,876,874,872,869,867,867,870,873,878,878,884,882,880,879,876,876,876,877,879,882,882,880,883,884,886,884,884,881,882,881,880,880,878,879,882,882,878,877,877,874,873,867,867,869,869,866,867,866,864,864,861,854,851,850,850,850,851,849,850,848,849,846,844,842,842,840,836,836,840,842,845,844,845,843,839,838,837,835,836,836,838,839,842,843,838,837,835,832,833,831,834,831,834,837,836,835,833,832,831,833,830,828,827,825,827,828,830,830,831,829,827,827,824,826,825,826,829,828,828,827,828,829,826,828,825,824,823,823,826,828,831,831,831,829,825,823,822,825,825,828,830,830,831,830,831,830,830,827,826,825,824,826,826,826,831,829,829,828,828,824,825,823,825,827,828,828,833,829,829,829,824,825,825,823,826,828,829,828,829,826,825,828,827,826,825,823,823,826,829,830,831,830,829,829,829,830,831,827,829,828,830,830,832,834,832,831,829,829,829,827,828,829,830,833,836,832,832,831,831,829,828,829,829,830,832,831,832,835,833,834,831,831,831,832,832,837,839,843,845,846,849,845,847,843,841,838,842,843,849,848,847,848,844,843,842,842,841,840,841,844,844,842,844,844,842,844,840,838,836,834,830,831,832,834,838,837,838,834,834,832,833,835,836,841,844,846,848,851,857,869,881,897,917,937,958,978,996,1010,1018,1022,1027,1029,1030,1023,1010,998,984,968,955,938,920,903,887,876,868,859,850,845,840,842,840,842,844,844,847,846,845,845,843,842,841,845,846,847,849,852,851,851,852,850,852,851,849,851,853,854,857,857,858,858,857,856,853,851,855,856,857,856,860,861,863,863,860,859,859,858,858,860,860,863,866,868,867,868,868,866,864,865,867,869,872,869,874,875,874,877,877,876,876,875,877,876,879,880,882,881,879,876,875,876,875,874,873,877,878,877,880,880,876,875,871,870,870,867,865,864,865,863,863,862,859,858,856,852,850,849,846,848,849,852,852,851,850,849,845,844,842,846,846,847,846,845,847,846,847,847,847,846,844,843,841,841,841,847,848,849,847,845,844,840,839,841,839,839,840,841,843,840,839,839,838,839,838,838,840,841,841,839,839,837,837,836,838,839,836,837,838,837,834,837,840,840,842,841,839,839,838,835,833,836,839,841,841,839,839,838,835,836,836,836,836,836,837,837,838,838,839,839,838,838,836,835,836,838,836,835,836,838,841,840,842,840,834,834,835,836,838,839,841,841,839,838,838,839,838,839,837,838,841,840,846,843,841,840,840,839,840,838,838,836,838,842,844,844,841,839,838,836,838,839,840,841,840,839,841,841,844,844,842,841,835,838,837,839,843,841,845,842,842,844,842,843,843,839,838,841,841,845,847,851,848,849,848,845,845,845,844,846,849,853,858,862,861,860,860,859,858,858,858,858,862,863,864,863,863,863,862,864,865,864,862,863,863,862,862,859,860,857,855,852,851,851,852,853,856,859,860,856,859,857,857,859,862,863,865,865,868,873,884,896,912,933,958,984,1004,1025,1042,1052,1058,1065,1070,1071,1066,1054,1038,1023,1007,988,968,947,931,916,903,891,882,876,871,868,872,871,871,872,876,877,878,878,880,878,879,880,878,877,877,878,881,882,885,886,889,889,889,888,887,888,891,892,893,892,896,896,897,898,894,893,891,891,891,890,893,896,899,901,900,899,897,898,899,896,898,900,903,903,902,902,899,899,900,901,902,901,900,902,905,907,908,909,908,909,907,908,908,905,903,902,903,907,910,910,909,904,900,898,895,893,898,899,899,898,896,896,892,890,889,888,883,880,878,877,878,875,876,875,874,871,872,867,865,864,864,863,865,864,864,864,864,864,863,865,862,863,860,862,862,864,866,869,867,866,865,861,858,859,856,859,859,860,863,864,863,860,855,857,855,853,852,855,856,857,860,856,854,855,853,851,849,848,851,850,853,855,855,856,856,856,855,854,853,853,853,853,853,854
