906,905,907,913,917,921,921,922,921,925,924,929,931,929,924,919,917,915,914,911,909,909,916,910,906,900,891,888,886,881,880,877,874,877,876,880,881,876,871,871,870,876,874,873,869,869,871,872,869,859,849,836,827,827,832,849,866,896,934,981,1025,1066,1098,1126,1159,1184,1203,1211,1213,1209,1205,1198,1187,1161,1118,1061,997,944,910,891,888,891,899,905,913,914,906,890,876,864,861,858,855,856,856,858,860,864,862,860,857,856,860,865,863,864,864,865,867,873,871,868,866,864,865,866,864,863,862,866,871,873,872,866,863,860,863,866,867,867,869,867,870,872,876,872,867,866,866,871,871,873,874,874,875,880,880,877,873,873,874,873,878,877,876,876,879,884,881,883,875,875,871,877,878,883,883,884,886,886,885,880,879,878,878,879,881,880,875,876,877,882,881,882,875,872,872,871,876,873,872,873,872,875,876,877,870,868,866,865,864,866,868,870,866,865,869,865,861,862,858,855,857,863,862,861,860,857,855,860,859,854,850,852,854,858,859,862,857,856,859,861,860,861,858,857,859,861,865,866,866,866,868,867,865,860,857,859,863,867,864,865,867,871,873,875,874,872,877,882,891,894,896,897,898,906,908,909,904,903,900,901,902,902,904,896,894,895,898,895,889,882,878,877,869,866,866,861,863,864,863,859,856,849,848,850,854,855,854,856,856,856,858,853,847,836,830,820,812,810,820,841,873,917,962,1005,1043,1082,1117,1149,1170,1184,1192,1194,1190,1182,1163,1138,1098,1043,982,926,883,857,855,864,873,880,879,871,860,851,843,838,835,834,832,836,840,841,838,834,834,834,837,838,834,834,836,838,841,842,838,834,833,835,838,841,839,839,837,841,842,847,845,845,840,839,842,842,843,841,845,849,851,850,850,847,846,849,852,848,849,848,853,855,858,855,855,854,854,855,854,853,847,848,854,858,858,860,857,855,857,855,855,855,852,855,858,861,861,858,857,853,854,855,850,849,852,850,854,854,855,852,851,851,851,853,851,848,844,846,845,850,852,850,845,845,842,845,843,840,840,839,841,843,841,842,839,836,838,836,831,830,826,824,831,836,835,830,828,824,827,827,824,825,824,825,828,835,832,834,835,834,831,836,832,832,831,831,835,841,839,839,840,835,835,837,836,837,837,838,839,844,851,852,850,849,850,854,860,861,863,866,872,880,883,889,884,881,880,882,882,879,876,873,874,874,877,875,872,869,866,861,852,843,837,835,837,840,841,838,835,832,829,829,829,827,824,825,828,830,837,833,832,827,822,818,816,805,796,787,784,791,800,822,851,881,912,951,987,1026,1057,1088,1119,1144,1163,1176,1178,1174,1163,1145,1126,1110,1076,1033,975,915,873,851,843,845,856,860,858,855,849,841,831,823,818,815,817,818,814,812,811,811,815,816,814,817,817,820,820,822,819,816,812,814,815,817,819,815,817,816,820,819,820,819,813,816,821,818,820,818,818,821,824,823,826,823,824,822,824,825,828,829,825,826,831,834,835,832,828,828,828,831,837,837,835,833,833,837,837,833,829,828,833,837,838,836,838,839,842,841,837,836,834,833,833,836,837,835,833,836,839,840,834,829,826,827,828,830,836,835,835,832,833,834,833,830,827,826,826,833,832,830,828,828,828,832,828,824,819,818,818,817,818,819,817,818,818,815,817,814,811,809,811,815,816,818,818,816,818,820,818,816,814,815,815,819,822,821,820,818,824,823,821,819,816,820,824,824,823,824,829,831,836,837,836,832,829,831,833,836,842,843,846,856,859,862,862,863,863,865,864,865,864,863,864,869,867,863,858,854,850,851,850,852,849,843,837,833,830,830,827,826,820,818,820,822,822,819,819,819,821,821,825,819,815,814,816,815,813,810,799,792,783,780,791,806,832,870,916,966,1008,1048,1084,1118,1142,1157,1160,1159,1151,1143,1130,1113,1079,1025,967,911,867,843,831,831,838,846,847,847,834,828,819,815,813,810,811,807,804,807,808,809,809,812,811,813,815,815,807,801,802,804,811,812,811,807,806,813,814,815,814,812,809,807,811,813,812,816,812,815,819,820,818,815,816,815,818,820,818,819,822,827,829,830,828,826,821,826,828,830,831,829,832,834,834,834,832,828,827,829,829,832,834,832,832,837,834,838,838,836,832,832,832,836,838,837,834,835,838,836,837,835,830,826,827,828,835,832,829,830,827,829,830,827,829,824,827,829,831,833,831,828,829,829,828,826,824,820,820,823,823,821,819,820,821,819,817,814,811,808,808,811,815,815,813,815,819,816,817,814,809,810,812,814,815,815,818,821,824,822,819,817,814,818,819,820,824,822,818,824,827,830,830,829,828,829,830,830,837,836,833,836,843,849,854,857,854,856,860,863,871,870,871,870,868,873,868,865,860,856,855,856,856,854,850,851,845,842,837,833,825,821,819,823,823,822,821,820,822,822,822,819,814,811,813,815,817,817,814,810,806,804,792,781,771,775,786,811,848,885,922,959,995,1034,1066,1097,1124,1141,1156,1164,1167,1160,1142,1122,1098,1056,1004,942,888,848,832,832,842,850,854,854,847,836,828,816,810,805,807,808,808,811,811,811,815,815,811,807,810,808,810,815,811,811,808,811,813,814,816,807,813,810,813,814,817,818,817,820,822,819,821,818,814,814,815,817,820,821,823,821,822,825,827,825,821,817,820,822,828,833,830,827,832,832,837,836,833,830,829,834,832,836,838,835,837,837,840,840,834,831,828,835,839,839,839,837,841,839,842,838,830,833,833,833,833,834,830,830,835,833,835,832,825,822,823,826,829,829,829,829,832,830,830,825,820,821,821,822,821,822,819,825,826,826,826,819,812,814,816,814,816,814,814,817,817,819,818,814,810,808,812,814,816,816,818,819,823,822,822,821,818,817,821,821,824,822,823,828,830,832,828,823,823,825,828,830,829,832,833,833,836,837,841,839,840,845,852,857,864,867,867,870,874,869,870,863,864,858,863,864,867,863,860,858,858,860,859,856,846,838,832,831,832,828,824,827,825,826,827,823,818,813,816,820,822,826,826,823,823,824,823,820,814,800,788,781,778,783,795,816,846,885,926,965,1002,1034,1070,1103,1132,1154,1164,1167,1166,1163,1155,1137,1107,1065,1008,949,897,861,843,837,843,855,861,861,852,837,823,816,814,811,811,810,806,807,807,811,807,805,802,806,809,812,812,810,812,812,814,812,813,809,809,807,813,818,821,820,818,818,819,817,817,815,812,811,813,816,819,819,822,824,825,822,819,816,816,820,825,830,826,826,825,832,833,830,831,829,826,830,832,834,834,835,836,840,839,840,839,837,834,836,840,843,843,842,838,837,842,841,844,841,837,837,840,844,844,841,840,838,843,840,839,839,837,839,842,846,848,845,842,840,839,836,838,837,833,832,832,838,839,838,836,834,835,834,831,825,823,823,825,828,828,829,823,823,824,824,824,824,818,819,816,821,824,830,825,824,825,827,829,825,824,821,823,829,833,836,834,832,829,831,831,831,829,829,828,832,837,842,838,837,837,835,841,844,841,842,843,846,853,862,866,869,868,872,874,876,881,879,877,878,879,882,884,880,877,871,870,868,867,868,865,860,856,859,860,846,844,837,834,837,833,833,830,829,832,839,837,836,829,830,830,834,835,829,826,825,823,817,806,794,786,791,807,834,867,906,945,983,1015,1052,1088,1117,1143,1163,1174,1182,1183,1178,1166,1146,1126,1093,1047,988,932,883,854,845,850,861,873,876,875,867,861,849,840,830,819,815,819,819,819,820,821,827,828,830,829,830,823,822,826,828,831,830,825,823,824,822,826,825,827,821,823,825,831,829,828,827,831,833,835,833,830,826,825,826,828,832,833,830,836,834,836,836,835,834,832,837,837,842,843,843,839,839,842,845,846,843,840,839,842,847,852,849,849,843,847,848,852,851,847,847,849,856,856,854,855,854,855,853,851,848,847,851,855,857,856,855,854,851,851,854,852,849,845,844,844,852,852,852,850,848,848,849,847,843,842,840,843,846,849,850,847,844,845,843,839,840,837,834,836,837,839,839,842,835,836,833,838,840,840,836,836,836,838,845,842,840,838,837,838,840,836,838,837,843,848,850,851,848,846,851,850,851,852,851,856,857,857,858,857,858,862,869,871,870,873,876,882,888,894,895,895,892,892,892,890,889,882,879,878,881,884,884,880,873,871,868,863,857,852,848,844,845,847,849,846,843,841,842,844,845,842,839,838,841,843,842,842,834,830,827,821,809,798,790,793,814,845,882,927,970,1012,1050,1090,1122,1143,1165,1176,1186,1187,1181,1167,1145,1112,1062,1001,942,888,852,842,850,861,870,876,873,865,860,849,838,831,822,823,826,830,837,835,829,828,828,832,834,832,829,823,824,835,840,838,840,834,837,839,841,842,836,832,832,837,841,844,845,834,831,829,827,830,831,833,834,841,843,839,836,832,837,842,843,842,840,842,846,848,852,852,848,849,851,854,853,851,846,847,850,852,852,853,848,848,850,854,852,852,852,852,856,861,862,860,854,852,852,855,855,850,848,850,852,858,858,859,854,850,852,853,852,855,850,849,852,856,857,860,855,853,848,847,850,851,846,849,846,851,853,851,846,844,845,844,843,840,836,839,841,845,846,844,840,837,840,836,837,839,836,834,839,844,845,846,844,843,842,843,844,839,841,842,851,858,860,862,854,857,856,857,863,868,867,869,875,882,891,890,886,885,884,886,889,890,887,887,887,889,886,884,883,876,868,870,872,871,866,858,855,853,854,851,846,843,841,840,837,836,833,835,838,842,843,838,836,833,833,831,823,815,800,791,792,797,809,832,862,906,952,993,1029,1060,1088,1118,1146,1164,1171,1171,1167,1158,1150,1134,1103,1053,991,934,884,858,845,847,853,864,867,870,864,850,838,829,826,825,829,830,826,824,824,825,825,822,820,821,824,828,833,833,828,829,829,830,830,823,820,822,827,829,828,826,826,825,833,833,830,828,826,831,834,835,839,836,838,838,841,842,839,836,836,840,845,847,848,845,846,849,851,847,847,842,843,844,850,851,853,849,850,852,853,854,849,847,845,846,853,855,856,855,855,852,853,852,849,847,844,848,850,849,850,848,849,851,851,846,845,842,839,846,842,846,845,845,845,849,847,843,838,836,837,839,842,842,840,839,840,838,839,835,830,829,831,830,831,831,830,831,832,833,835,831,827,827,826,829,830,833,832,832,833,838,838,834,830,828,827,830,831,837,835,836,834,839,840,837,835,839,840,843,845,847,846,850,854,857,859,860,861,866,873,875,877,876,880,884,885,884,880,876,874,876,872,870,867,865,864,865,863,859,848,843,836,839,835,829,828,826,830,832,835,831,825,821,821,819,821,821,819,820,821,820,814,809,795,783,781,787,803,827,861,899,940,980,1017,1048,1080,1109,1133,1151,1160,1157,1149,1143,1133,1113,1073,1016,948,888,847,827,821,828,840,851,851,849,838,826,818,809,808,810,806,805,806,808,810,817,817,815,812,814,811,813,815,812,809,812,818,821,822,817,816,813,815,817,819,816,813,815,817,819,823,818,816,817,820,820,820,819,821,824,827,828,829,828,824,824,826,827,825,825,825,827,835,837,837,835,833,834,834,834,832,830,832,833,839,841,841,836,834,831,838,837,835,832,831,834,837,839,843,840,834,830,833,831,832,829,828,827,828,836,834,831,827,824,822,826,828,827,827,824,825,829,830,832,828,818,818,819,821,820,819,818,817,818,821,823,819,815,811,808,808,810,810,811,807,805,807,812,811,808,806,806,808,807,806,805,809,813,813,816,816,811,810,810,812,815,818,817,817,815,816,821,827,822,820,819,819,824,825,829,831,836,843,851,850,849,852,850,854,855,859,862,859,857,858,859,856,855,851,845,843,842,845,848,845,839,835,827,825,823,820,812,808,807,810,814,817,814,813,810,807,807,807,803,800,801,806,809,805,800,787,780,773,773,770,779,791,822,853,896,933,969,998,1027,1057,1087,1112,1127,1136,1138,1136,1129,1122,1109,1084,1043,989,928,876,838,815,806,811,823,836,845,841,832,817,805,799,797,793,793,790,790,792,797,797,796,793,790,790,789,796,796,794,795,792,795,802,805,802,795,795,795,795,793,797,796,795,795,804,803,800,800,799,798,801,801,802,803,805,811,811,810,809,804,806,807,812,809,806,809,810,812,818,815,812,812,811,815,818,813,815,814,815,820,824,824,820,819,819,820,819,816,816,817,817,823,826,821,817,814,817,815,817,814,812,811,816,818,821,818,814,814,808,811,814,813,811,810,811,813,814,815,810,808,808,807,805,804,800,804,809,810,809,807,802,800,802,799,800,794,792,795,798,801,801,799,797,796,796,799,795,792,791,793,795,799,801,798,798,797,798,802,801,798,796,798,802,805,809,807,803,805,804,810,814,811,810,812,813,823,829,831,830,827,831,834,838,845,844,842,847,849,850,849,844,840,840,839,832,826,824,827,833,828,822,817,811,807,807,805,802,798,796,800,801,803,803,798,792,794,795,799,797,794,791,789,794,787,783,767,755,750,756,772,792,822,855,897,940,980,1014,1045,1077,1102,1120,1130,1134,1133,1123,1114,1101,1082,1047,995,927,869,829,808,803,805,814,822,826,826,819,806,793,784,780,780,781,778,779,783,786,790,789,787,789,789,791,788,786,783,782,787,790,789,790,785,786,789,792,791,789,786,787,790,797,796,799,793,791,794,794,795,797,794,793,795,799,803,805,803,800,801,802,803,805,800,798,800,802,806,814,811,807,805,807,807,807,807,806,806,811,814,819,815,814,811,809,810,811,806,806,809,812,814,818,813,809,809,809,811,812,808,806,805,809,813,809,812,809,807,806,808,806,799,799,797,800,802,808,807,803,800,800,799,802,798,796,793,794,799,804,801,796,794,789,790,789,793,788,785,785,787,790,791,790,790,787,786,789,787,789,790,790,790,796,800,800,799,797,795,801,797,798,799,797,802,807,810,809,804,805,804,806,806,808,811,818,828,838,842,844,843,844,849,850,848,843,843,846,847,850,848,845,839,833,834,838,838,836,833,827,825,822,820,815,809,806,803,802,803,802,801,800,796,804,803,803,797,796,794,793,794,795,794,790,787,782,775,764,759,759,780,804,844,886,931,973,1017,1055,1091,1118,1134,1146,1149,1150,1142,1130,1106,1080,1039,986,927,873,832,809,806,815,831,839,840,835,825,821,811,801,794,789,787,792,793,791,791,790,791,794,796,795,792,788,789,793,796,796,795,792,796,800,803,802,797,798,795,796,796,797,795,795,799,803,805,804,802,794,794,792,795,795,799,799,801,806,812,807,807,807,808,809,808,809,810,811,816,818,819,818,816,819,818,821,818,815,811,817,822,825,828,822,819,819,821,820,824,820,819,819,823,828,828,826,820,819,818,818,818,818,817,819,821,827,828,823,816,816,815,817,815,815,812,812,813,819,825,825,821,818,818,816,811,809,808,811,814,810,808,804,806,807,810,804,801,804,806,809,809,807,806,806,811,812,811,809,808,810,811,813,816,816,819,826,826,824,824,823,828,833,839,846,849,852,856,863,861,856,852,848,851,853,856,857,856,857,859,856,855,848,844,837,836,833,831,827,825,823,823,820,818,813,812,807,810,814,817,818,820,821,819,814,805,800,797,795,789,781,768,767,772,784,811,841,876,914,956,997,1029,1062,1091,1114,1129,1141,1145,1142,1136,1118,1101,1073,1030,972,910,856,824,814,821,831,841,844,842,835,827,818,808,801,799,804,808,810,806,805,802,805,805,806,806,809,812,816,821,817,811,803,802,802,804,805,810,811,814,818,816,814,812,812,813,817,813,812,812,815,820,822,821,814,812,809,813,816,820,819,819,824,826,833,834,833,831,828,828,824,829,824,828,829,830,835,839,834,832,827,832,832,833,831,831,829,832,834,834,829,829,831,832,835,837,833,832,830,834,830,830,830,828,831,831,829,829,827,826,826,829,829,828,828,823,822,825,826,822,822,821,821,825,830,831,827,824,818,820,817,820,819,821,817,820,823,825,819,813,810,810,814,815,815,815,814,814,820,824,825,823,820,819,819,821,821,824,826,824,830,830,835,835,831,831,826,828,834,837,839,841,845,854,859,863,865,863,861,860,866,862,867,866,867,869,869,867,863,854,853,857,858,855,852,846,846,845,842,843,837,829,824,827,828,826,825,824,825,824,827,829,827,823,822,821,823,824,824,817,810,803,796,791,786,791,807,832,865,907,949,984,1016,1044,1071,1101,1124,1139,1139,1140,1134,1134,1132,1123,1103,1069,1018,957,900,855,827,816,828
