814,816,812,819,822,824,826,822,823,821,823,819,820,820,819,822,821,826,829,828,830,834,842,854,870,889,919,946,967,978,964,928,876,815,755,706,672,651,659,679,705,734,755,770,781,795,808,818,822,825,829,830,833,829,835,836,837,840,840,840,840,837,839,841,847,847,849,848,845,845,849,846,844,843,844,850,854,854,857,856,855,858,855,853,852,848,854,856,861,865,867,868,867,868,867,867,865,863,867,873,868,873,878,879,880,882,882,884,885,888,891,899,905,906,910,913,914,918,917,918,922,923,932,935,940,945,946,952,955,956,954,958,960,961,960,960,965,967,970,968,967,963,961,962,955,951,946,946,943,940,937,931,925,917,912,906,897,888,886,885,879,876,878,871,869,867,862,859,855,850,847,851,851,851,853,854,852,850,850,850,846,845,844,843,847,848,849,848,848,849,845,845,845,844,846,845,846,850,853,855,852,853,848,847,847,846,845,847,847,849,853,853,852,849,849,846,846,843,842,843,844,846,848,846,846,843,842,841,842,837,841,841,843,843,843,845,844,844,840,838,836,835,835,837,839,841,843,844,841,841,842,839,837,837,835,835,835,838,839,841,839,840,839,835,835,834,834,837,837,836,838,839,840,836,836,834,832,832,832,835,836,836,842,836,840,837,836,835,831,832,830,831,830,835,837,838,838,837,836,836,833,833,831,834,834,834,836,836,837,835,835,832,833,828,831,834,836,839,840,841,838,838,837,834,830,828,831,829,835,835,837,836,836,836,835,835,833,833,831,833,834,837,840,841,837,836,834,833,830,831,833,832,834,837,837,841,840,839,834,835,836,834,832,833,836,836,841,842,840,839,839,837,836,836,837,838,839,841,843,842,843,844,846,845,848,847,847,853,856,858,862,864,866,866,867,869,868,862,866,865,867,868,866,865,861,859,860,854,853,850,846,843,842,839,841,839,838,837,835,835,834,832,829,830,833,832,833,835,835,835,832,830,830,829,829,831,832,835,838,838,840,838,839,839,843,846,858,874,888,913,939,962,987,1000,996,978,948,902,853,805,763,729,706,698,703,721,741,759,772,787,800,815,826,836,844,844,848,846,846,842,844,842,843,846,848,851,853,852,854,852,855,850,855,852,854,856,863,864,867,865,864,864,864,861,858,861,862,864,866,868,871,873,872,870,871,870,868,866,865,868,871,874,875,879,882,880,880,876,881,884,884,886,891,893,897,899,901,902,905,904,903,905,907,911,919,923,927,931,933,937,936,940,941,940,942,946,953,953,958,963,962,962,963,963,965,962,966,965,967,966,965,963,958,954,948,941,939,932,926,922,917,915,913,908,902,899,894,888,880,873,871,868,865,862,861,860,856,856,852,847,844,843,844,843,842,843,842,847,846,847,841,840,838,840,840,842,845,843,850,846,846,847,847,843,841,840,842,843,843,848,846,847,849,847,847,844,843,839,841,842,844,842,842,841,841,843,841,840,837,838,836,841,836,839,839,842,838,839,838,834,832,829,829,832,831,830,836,837,835,833,834,830,830,828,829,829,831,828,832,834,833,833,830,829,825,826,825,828,829,832,831,831,832,832,828,826,823,824,823,825,828,826,829,828,831,829,828,824,823,821,824,822,824,823,824,824,826,826,823,823,823,821,824,824,824,823,826,831,831,830,826,822,821,816,820,821,824,825,827,827,830,828,828,825,823,821,822,821,825,825,827,827,824,826,819,820,821,819,820,821,822,823,827,830,828,825,824,824,820,820,821,823,825,826,827,828,823,828,827,827,822,822,823,825,823,826,827,827,829,828,825,825,822,820,816,821,827,828,828,828,829,830,825,824,822,823,821,825,826,826,829,830,828,828,829,824,825,822,822,828,829,835,833,838,840,843,841,842,842,842,844,847,851,852,860,862,860,861,859,859,853,851,847,847,848,847,849,851,846,840,837,827,826,822,822,825,824,826,830,828,827,825,819,816,817,816,816,817,818,819,820,820,817,814,818,816,815,816,821,821,827,826,831,834,838,845,854,869,887,908,933,957,968,962,940,899,851,800,751,709,679,670,672,693,715,738,756,774,786,800,813,821,824,826,824,824,827,831,833,834,838,836,835,831,834,834,835,838,838,842,847,847,847,849,844,844,841,844,846,844,850,848,853,851,852,853,853,851,852,851,853,856,857,855,858,861,862,865,863,865,864,865,867,869,872,874,879,881,882,884,882,880,882,884,887,891,895,900,907,911,914,916,914,921,921,924,927,933,936,941,943,946,948,946,952,956,953,954,954,954,958,959,961,958,957,951,949,942,938,933,928,924,917,915,911,907,902,896,887,877,873,868,864,860,860,856,855,852,848,844,843,840,839,838,836,838,838,837,837,840,839,838,835,834,833,833,834,836,835,834,836,837,833,835,833,832,832,834,833,835,837,836,839,842,841,841,839,836,836,836,836,840,838,839,839,838,835,839,836,834,829,828,828,831,829,831,832,832,834,833,830,828,828,824,823,824,826,828,830,827,828,829,824,823,823,820,821,822,822,821,823,825,822,826,824,823,822,820,819,824,826,826,828,827,827,826,824,823,821,819,821,819,824,827,825,826,827,829,826,827,823,824,822,823,823,824,826,827,828,828,826,823,819,818,819,822,826,827,829,829,829,826,824,822,821,824,825,824,826,828,829,831,829,829,826,825,823,825,822,823,826,826,829,825,824,828,827,824,821,818,819,820,825,825,828,829,829,831,827,827,825,822,825,826,822,831,831,835,831,829,829,827,825,824,825,824,830,829,829,830,834,834,831,830,829,828,829,828,828,829,831,830,833,834,832,832,831,830,833,833,837,839,843,845,848,850,847,848,843,845,849,853,858,864,866,868,868,867,867,863,856,848,847,848,849,850,849,849,843,841,837,832,828,828,829,829,830,835,833,833,832,830,827,823,825,823,825,828,829,828,832,833,833,833,829,827,826,828,830,829,835,835,839,844,854,868,884,904,928,955,975,988,984,956,918,873,819,768,724,694,679,679,699,721,743,761,773,786,801,812,825,832,836,840,840,843,840,839,840,845,847,851,852,851,850,845,848,850,852,857,856,860,855,860,857,857,857,854,854,858,860,859,864,866,865,866,864,862,861,863,864,863,867,870,874,874,878,875,875,874,877,875,879,882,882,886,886,892,893,892,897,896,898,900,902,907,910,916,920,923,925,927,928,931,934,934,938,941,947,954,954,957,959,959,962,963,964,958,959,960,962,964,962,963,964,964,959,955,947,942,936,932,927,924,916,916,909,904,894,890,887,880,876,869,871,871,867,866,865,860,858,853,851,851,849,852,851,853,852,852,851,848,846,843,842,841,842,839,842,843,845,849,850,849,846,849,846,845,845,846,848,850,849,854,852,853,851,846,846,844,844,847,851,854,855,855,854,851,852,847,845,843,841,845,843,847,845,845,844,841,840,838,837,835,836,836,838,840,841,841,840,839,834,835,835,833,832,834,834,835,838,834,835,835,832,830,832,828,826,830,833,834,836,835,838,836,832,833,829,829,827,831,832,829,831,828,831,829,829,830,829,828,829,830,828,831,830,835,833,829,830,828,826,824,826,823,829,828,834,833,832,834,832,833,828,828,828,831,829,831,832,831,832,836,830,828,825,826,827,828,828,834,834,836,835,837,832,831,828,822,824,826,828,830,833,832,833,831,831,831,828,827,829,828,831,832,833,831,835,835,829,830,826,829,827,829,833,834,835,837,837,833,830,828,830,830,828,830,828,833,832,837,836,837,834,832,831,831,832,830,835,836,837,837,839,839,839,836,833,835,836,838,842,845,851,852,853,853,853,851,851,852,856,863,866,869,872,871,874,868,869,863,860,856,855,857,856,854,853,852,845,840,837,835,832,830,830,830,830,830,830,832,829,830,824,822,822,821,821,823,827,824,827,829,829,828,825,824,823,824,824,824,829,836,844,857,872,893,917,940,964,980,982,969,940,900,855,802,754,717,688,682,690,708,733,754,769,784,795,807,813,823,830,835,832,831,832,831,834,836,840,842,843,842,843,841,840,841,841,844,848,845,846,845,849,850,850,849,848,849,847,850,853,855,858,859,861,861,854,854,850,853,852,856,860,863,865,866,866,865,869,866,868,864,869,868,873,875,880,882,883,886,888,888,888,888,891,896,899,903,908,911,913,910,914,918,921,925,923,928,934,938,942,946,946,947,950,949,947,947,950,951,955,958,960,960,955,956,949,947,942,938,933,927,924,919,916,912,905,897,895,891,882,876,866,862,858,857,855,856,852,849,847,842,834,834,833,833,835,836,837,838,835,834,832,831,832,831,829,831,834,834,834,833,837,837,835,836,831,832,831,833,831,836,837,837,836,836,835,833,833,831,832,832,833,834,832,835,833,836,834,834,833,831,828,827,827,829,828,831,832,827,830,829,822,819,823,821,821,823,822,821,820,822,821,823,818,819,818,819,818,817,816,819,819,821,820,819,817,816,815,815,816,817,819,821,819,822,818,820,818,814,812,813,812,816,819,817,816,818,818,813,813,812,816,815,818,816,821,824,822,822,818,817,809,810,809,810,814,818,819,821,822,821,818,817,815,814,812,812,814,816,818,817,817,817,817,816,813,813,811,811,814,816,818,818,818,820,817,810,811,811,812,813,814,815,819,819,817,815,818,815,813,813,811,813,813,815,819,818,817,818,820,819,814,813,814,815,814,821,819,822,819,820,820,813,815,814,814,814,818,821,824,822,824,819,820,820,816,815,815,818,818,824,827,832,834,837,839,836,832,833,834,836,841,845,849,854,856,854,854,851,852,848,844,841,843,842,845,846,842,839,834,827,820,819,816,816,819,821,822,825,824,821,820,817,816,813,812,814,811,814,815,817,816,816,817,814,813,809,811,815,815,821,824,823,823,825,823,828,833,842,856,881,905,935,957,970,964,937,893,833,774,729,686,659,650,662,682,705,727,744,755,771,781,796,807,816,826,829,829,832,830,827,828,829,829,828,828,829,832,833,839,840,843,841,845,840,840,838,838,836,837,840,844,846,847,847,844,846,844,845,844,845,847,850,850,852,852,851,849,851,847,853,852,853,856,860,863,867,869,872,871,873,873,873,873,876,877,883,884,889,893,897,895,897,897,903,909,909,913,921,924,930,932,936,937,937,939,941,940,946,950,950,955,957,956,960,958,959,955,952,948,946,943,943,940,940,937,924,921,916,907,901,892,887,883,880,879,875,870,864,859,853,852,849,844,841,840,841,842,845,841,841,836,835,833,831,827,828,834,838,836,837,838,837,835,835,831,828,829,828,827,833,830,832,833,830,833,835,832,833,831,831,833,834,836,837,837,835,838,832,830,831,828,828,830,830,830,836,835,837,834,829,827,824,823,825,825,826,826,830,827,827,829,824,822,820,817,818,819,822,821,825,822,822,819,819,819,816,819,818,819,818,817,822,822,820,818,817,816,814,812,814,815,816,821,820,821,822,820,817,815,814,812,812,814,816,817,819,817,816,820,816,816,814,815,815,817,816,818,819,816,819,817,815,812,813,813,810,816,813,817,820,818,818,819,817,814,813,811,811,814,815,819,821,820,819,822,818,818,813,814,815,813,816,816,820,820,822,821,821,821,818,818,818,821,821,823,822,822,822,819,817,819,819,817,817,819,821,824,824,825,825,824,822,817,817,811,816,821,824,827,829,831,833,834,834,837,839,837,839,841,843,849,853,855,855,857,852,850,850,848,850,849,849,851,852,848,845,844,839,836,830,826,825,824,824,823,824,825,825,823,820,818,818,813,816,816,818,816,821,820,820,818,817,817,816,814,815,819,820,825,826,824,825,828,830,833,846,861,884,909,942,963,987,1002,990,961,918,864,810,756,709,683,671,682,702,722,743,759,773,782,796,805,818,824,829,834,835,836,833,832,831,828,831,831,832,837,838,840,843,844,844,845,846,843,844,841,839,844,849,848,849,850,848,849,849,849,852,851,849,851,853,857,860,860,859,861,861,859,860,858,859,861,862,868,873,871,872,875,876,875,877,876,876,881,881,886,888,894,895,901,901,902,908,907,909,916,918,928,931,933,937,939,943,941,943,945,945,948,954,957,962,961,960,960,958,957,955,953,949,947,945,941,941,933,931,926,918,913,907,899,893,890,882,883,880,874,869,863,857,852,849,846,843,842,841,841,842,841,838,838,837,835,835,833,830,831,831,832,836,836,834,835,834,831,831,830,830,833,833,832,840,839,836,834,831,831,832,830,824,831,832,833,834,838,839,838,835,832,831,829,828,830,834,835,837,835,833,833,831,829,829,825,824,828,826,827,829,826,826,827,824,822,821,821,820,821,822,824,822,822,822,822,817,815,818,816,816,818,818,822,824,824,822,820,819,821,818,812,810,811,816,819,822,823,818,821,819,820,817,817,818,814,818,819,822,821,822,818,817,817,814,815,814,814,818,818,820,819,819,818,818,817,815,812,812,811,817,820,822,821,823,823,822,822,821,818,817,817,819,821,822,824,823,822,822,821,820,818,819,821,823,823,824,825,824,824,824,822,822,820,818,818,822,823,826,826,824,821,822,820,821,821,821,823,822,822,826,826,825,824,822,824,824,824,824,823,825,826,828,827,827,826,824,822,823,820,820,822,828,828,829,829,830,827,827,825,825,823,822,823,828,830,834,834,841,843,841,842,844,843,845,847,850,856,860,862,865,861,861,857,853,849,851,851,848,851,851,854,848,846,837,833,825,826,823,822,820,825,825,823,824,826,822,820,817,816,815,815,817,817,820,821,820,818,816,820,818,816,816,818,821,825,827,829,828,829,832,849,863,882,902,926,954,978,988,982,957,918,866,812,761,719,684,669,677,694,718,741,756,771,785,794,808,816,823,826,834,835,835,832,835,834,836,833,835,835,834,837,839,840,844,844,845,847,845,848,843,847,844,842,844,843,848,850,851,851,850,850,850,849,848,851,853,854,857,856,858,858,856,856,856,855,859,862,865,868,870,872,875,872,877,876,874,872,875,879,881,884,890,893,896,901,901,905,903,909,909,913,918,921,930,934,936,938,937,938,938,939,940,944,949,950,953,959,959,960,957,954,952,949,947,943,943,939,939,933,929,921,915,910,902,897,888,882,885,878,876,871,867,862,857,852,847,844,843,842,840,840,841,839,841,839,834,834,830,827,826,826,828,830,832,836,834,836,833,834,830,830,829,834,833,834,835,835,833,833,832,829,829,829,828,831,832,833,834,834,834,832,832,830,827,827,825,826,828,832,834,833,831,833,827,826,822,823,822,824,824,825,826,826,823,817,816,819,816,818,815,818,820,819,819,824,822,821,820,819,816,815,816,817,818,817,821,820,821,817,817,818,810,806,807,811,814,816,814,816,818,819,816,814,811,813,814,814,814,817,820,819,818,817,813,812,812,810,811,810,814,813,818,817,816,817,816,812,813,807,807,811,812,813,815,818,816,815,815,813,812,811,813,812,814,811,814,817,818,817,815,812,815,812,810,809,813,815,814,816,816,814,811,813,814,815,812,810,810,814,819,821,819,817,815,813,813,812,812,814,818,818,819,819,821,822,818,816,812,810,812,814,817,817,818,819,820,819,820,817,815,813,814,815,817,819,823,825,826,825,826,828,828,830,832,836,836,838,839,841,847,847,852,854,853,853,854,853,853,850,851,851,846,845,842,836,834,829,825,817,818,820,823,823,823,818,817,814,815,811,810,812,812,813,817,817,818,813,811,811,811,808,811,814,816,819,821,821,822,822,819,822,825,837,850,870,895,920,946,970,977,967,937,896,841,785,740,698,667,652,648,662,683,701,717,731,748,758,770,786,801,812,823,825,828,825,824,822,821,823,824,829,833,835,837,837,836,840,839,835,836,833,835,839,839,842,844,847,848,848,844,845,843,844,844,846,846,848,850,852,850,852,851,850,850,849,852,855,857,856,864,866,866,865,865,866,865,868,867,873,874,879,884,886,889,892,890,895,895,899,901,904,910,913,918,922,925,925,926,930,929,934,937,941,943,950,948,953,952,955,953,953,952,951,952,954,949,952,951,948,948,943,941,934,927,921,913,908,903,897,895,893,888,883,876,868,864,860,857,852,852,853,853,850,847,840,842,836,833,831,833,835,835,838,838,834,835,836,834,834,832,832,831,832,834,835,837,837,835,833,832
