990,985,984,986,989,986,986,986,986,987,989,989,988,989,987,990,992,995,991,989,986,989,992,995,995,995,997,996,999,996,994,992,994,999,1004,1005,1002,998,998,999,1002,1003,1005,1005,1005,1008,1007,1005,1002,1001,1005,1011,1015,1018,1017,1014,1011,1011,1012,1017,1018,1022,1026,1027,1029,1025,1021,1020,1022,1025,1031,1035,1033,1032,1028,1028,1031,1029,1029,1030,1030,1032,1033,1031,1029,1022,1020,1020,1020,1017,1013,1009,1005,1005,1004,998,996,991,991,990,994,991,988,985,978,982,984,986,985,984,984,982,984,980,977,976,977,980,982,980,975,971,970,972,977,977,976,978,978,979,978,972,969,968,969,975,977,974,970,968,966,963,968,970,966,969,967,967,967,968,963,961,964,963,970,970,970,968,965,966,967,967,968,968,967,971,969,968,969,967,969,972,976,973,973,970,967,971,975,977,978,977,975,976,978,978,974,972,972,970,973,978,979,984,986,987,990,989,984,981,979,983,988,986,983,983,980,979,981,977,972,973,974,977,978,975,973,964,963,965,967,966,965,964,963,966,964,962,962,963,964,970,977,979,977,971,976,979,985,987,985,986,987,990,992,992,989,990,992,995,999,1000,996,994,993,994,997,999,998,996,996,995,995,995,989,978,965,961,964,970,982,993,1007,1021,1035,1042,1044,1053,1070,1104,1138,1163,1172,1166,1149,1126,1102,1075,1052,1036,1024,1021,1021,1013,1008,1004,1004,1006,1012,1013,1015,1015,1014,1016,1016,1014,1014,1015,1015,1016,1019,1022,1020,1018,1015,1017,1019,1021,1025,1027,1025,1028,1025,1024,1023,1026,1025,1027,1030,1029,1028,1025,1026,1031,1034,1035,1037,1033,1033,1037,1039,1041,1042,1040,1037,1042,1043,1041,1040,1042,1045,1047,1051,1050,1049,1048,1046,1049,1052,1055,1058,1059,1057,1055,1056,1056,1053,1050,1053,1059,1061,1062,1059,1058,1054,1054,1058,1057,1055,1056,1052,1052,1048,1043,1034,1033,1031,1031,1034,1033,1035,1026,1021,1020,1020,1016,1016,1014,1013,1014,1016,1013,1009,1005,1004,1005,1008,1008,1007,1004,1001,1003,1002,1001,1002,1000,1000,1003,1003,1000,996,996,995,997,1000,994,995,993,991,992,997,996,992,991,988,990,990,986,986,986,986,987,990,988,984,982,979,982,981,987,989,987,988,987,989,987,985,984,982,985,989,985,980,981,979,983,986,991,990,990,988,987,985,984,983,986,990,993,993,990,985,981,980,983,988,995,998,998,995,995,999,998,995,993,993,995,998,994,990,988,985,984,988,986,986,983,980,978,979,976,973,966,966,967,970,967,965,968,966,967,967,964,963,966,964,973,977,977,974,976,975,978,983,984,984,982,981,981,987,988,988,989,990,996,997,996,993,991,987,987,989,994,993,991,989,987,986,979,970,961,953,951,959,966,972,981,987,997,1010,1021,1034,1055,1081,1116,1149,1161,1161,1144,1125,1103,1080,1057,1036,1021,1007,1004,1003,1001,998,1001,1002,1002,1004,1001,1000,999,999,1003,1006,1003,1005,1003,1001,1003,1008,1007,1008,1003,1002,1006,1007,1009,1012,1008,1005,1009,1010,1010,1009,1008,1007,1010,1016,1016,1013,1012,1010,1013,1019,1021,1021,1019,1014,1019,1020,1016,1015,1017,1020,1024,1026,1027,1029,1027,1023,1023,1028,1029,1031,1032,1034,1034,1036,1034,1032,1035,1034,1037,1039,1038,1039,1040,1038,1039,1042,1041,1041,1040,1038,1036,1042,1036,1037,1031,1028,1027,1029,1026,1022,1018,1016,1015,1014,1012,1009,1008,1004,1002,1003,1002,999,995,997,999,1000,996,994,990,990,988,991,991,992,991,987,989,990,990,984,983,981,983,984,988,986,984,981,980,981,980,978,977,976,982,985,981,979,974,971,973,975,972,973,973,974,976,973,969,969,964,963,966,970,969,969,967,967,969,970,969,968,964,965,968,970,968,969,967,967,967,968,968,967,967,969,971,974,975,972,970,968,969,973,971,968,962,964,971,974,975,975,971,969,969,975,971,972,970,967,969,975,977,977,976,975,979,984,986,987,986,982,982,982,978,979,977,975,977,980,981,976,975,969,971,971,968,965,964,964,965,966,964,962,955,953,954,957,956,960,959,958,956,957,956,955,954,953,962,967,968,969,971,973,975,977,976,975,975,975,977,980,979,979,977,977,980,985,987,984,985,979,982,986,984,982,983,982,983,982,983,980,972,964,956,949,943,943,943,949,961,975,985,994,1003,1009,1021,1042,1067,1100,1133,1155,1161,1152,1134,1111,1085,1056,1040,1029,1011,998,993,996,1001,1002,997,995,991,988,989,993,995,997,997,994,995,994,991,992,991,993,998,1003,1004,1002,1000,1000,1000,1005,1006,1007,1005,1007,1011,1011,1007,1006,1004,1000,1004,1010,1012,1011,1010,1009,1011,1016,1015,1015,1012,1011,1015,1018,1015,1017,1019,1018,1021,1023,1024,1023,1023,1022,1022,1028,1030,1029,1031,1031,1033,1031,1034,1033,1036,1037,1039,1043,1040,1039,1037,1035,1040,1043,1041,1042,1044,1041,1038,1040,1037,1031,1028,1029,1033,1034,1031,1028,1024,1017,1013,1018,1014,1014,1011,1008,1011,1009,1007,1002,1002,1000,1002,1004,1002,999,993,997,996,998,994,995,996,995,996,999,998,994,987,990,992,996,994,990,986,987,988,989,987,988,987,987,990,991,987,985,985,983,984,984,983,979,977,979,982,986,986,983,981,977,979,978,979,980,978,978,983,987,985,983,980,978,981,987,988,989,986,986,986,984,985,983,980,980,987,991,991,985,984,983,984,989,988,991,991,992,992,991,991,987,985,983,987,989,995,998,999,1000,999,999,1000,1001,999,996,995,998,1000,996,992,987,990,993,992,989,989,989,992,992,990,987,979,976,978,979,977,976,973,974,976,976,975,969,970,969,975,980,981,984,983,983,983,985,988,989,990,993,996,998,996,997,993,993,995,998,999,998,1000,1003,1004,1006,1003,1001,998,997,1000,1004,1007,1005,1005,1006,1001,1000,995,991,983,976,971,972,977,987,1000,1011,1026,1040,1050,1060,1066,1080,1110,1143,1168,1183,1180,1167,1154,1134,1102,1072,1049,1029,1017,1012,1008,1007,1003,1002,1005,1011,1009,1012,1007,1006,1005,1007,1006,1006,1006,1008,1009,1012,1010,1008,1007,1005,1005,1007,1008,1006,1007,1007,1014,1013,1013,1014,1011,1010,1010,1011,1015,1017,1015,1016,1017,1020,1017,1015,1013,1014,1019,1023,1025,1024,1021,1018,1018,1021,1023,1026,1028,1031,1034,1032,1030,1028,1026,1025,1028,1035,1035,1038,1039,1034,1034,1037,1036,1035,1037,1036,1040,1043,1043,1041,1038,1038,1039,1042,1040,1039,1034,1033,1034,1032,1031,1028,1031,1026,1025,1024,1019,1014,1013,1008,1012,1011,1010,1004,1001,998,999,999,999,997,997,995,997,996,995,989,985,982,983,987,986,987,986,985,986,982,981,980,976,975,981,986,985,982,977,972,973,973,974,973,976,978,979,978,975,971,966,968,972,974,973,972,970,968,965,966,964,963,963,961,967,970,971,970,966,963,964,965,964,966,966,963,968,968,969,969,966,966,969,970,970,970,968,968,970,972,970,971,969,969,972,973,973,973,972,972,973,974,975,973,969,970,972,978,978,978,977,976,977,980,980,979,977,973,980,988,990,988,985,981,980,982,980,980,981,978,981,983,980,976,971,967,965,971,971,970,968,966,965,964,957,956,953,950,954,955,957,956,956,954,953,952,954,952,954,958,963,965,966,966,969,967,967,974,972,972,970,967,971,977,980,982,976,972,977,982,980,981,980,980,983,986,988,986,980,979,981,981,983,981,977,974,968,960,946,940,939,944,954,968,976,988,994,1005,1015,1023,1034,1049,1072,1100,1136,1160,1165,1159,1150,1138,1123,1101,1075,1049,1030,1016,1005,1002,1001,996,995,990,987,989,986,987,983,984,991,996,997,995,991,990,991,992,995,996,996,998,1002,1000,1000,998,995,997,999,1003,1003,1003,1004,1001,1004,1003,1004,1004,1001,1001,999,1005,1006,1009,1007,1007,1008,1010,1013,1010,1011,1009,1008,1012,1014,1014,1011,1014,1020,1023,1022,1020,1020,1017,1020,1021,1023,1025,1026,1025,1026,1027,1026,1025,1024,1024,1026,1031,1035,1035,1035,1035,1033,1039,1036,1033,1032,1030,1035,1037,1039,1037,1033,1029,1029,1033,1031,1031,1027,1027,1029,1034,1033,1031,1025,1021,1019,1015,1013,1010,1008,1006,1008,1007,1002,999,998,996,996,998,996,994,993,993,992,994,991,986,985,984,983,985,987,984,981,980,983,985,986,985,980,982,984,984,981,982,978,978,979,982,978,979,974,972,973,974,974,976,974,974,974,978,976,974,967,967,965,970,969,971,970,968,972,973,969,966,963,968,971,973,975,973,971,969,969,969,970,968,969,972,976,978,978,975,973,972,971,974,976,975,977,977,979,984,979,980,978,977,977,980,984,985,982,979,980,983,981,980,976,979,982,989,991,991,992,992,993,993,994,996,993,988,991,991,992,989,988,987,988,987,987,986,982,984,984,986,983,985,984,979,980,979,977,973,970,968,970,972,974,971,967,966,967,969,971,971,975,975,977,980,982,980,983,985,992,998,1000,997,995,993,992,994,995,995,996,999,1003,1012,1009,1005,1001,999,1005,1005,1011,1015,1013,1008,1010,1006,1004,997,992,988,984,978,976,979,985,999,1014,1026,1038,1046,1051,1056,1069,1087,1114,1142,1170,1187,1194,1183,1167,1141,1109,1076,1052,1038,1028,1015,1011,1010,1009,1010,1012,1011,1012,1013,1016,1018,1015,1014,1014,1013,1018,1021,1023,1024,1022,1019,1016,1015,1016,1018,1020,1021,1023,1026,1026,1021,1023,1019,1022,1026,1030,1030,1031,1028,1028,1027,1027,1024,1023,1024,1029,1035,1037,1035,1031,1027,1030,1035,1036,1036,1037,1037,1040,1041,1042,1039,1037,1037,1041,1046,1049,1047,1046,1046,1050,1053,1053,1054,1053,1051,1051,1054,1054,1054,1054,1052,1054,1059,1056,1053,1052,1053,1056,1055,1056,1052,1049,1047,1043,1043,1039,1038,1037,1033,1034,1034,1030,1023,1021,1017,1015,1020,1019,1020,1019,1014,1011,1011,1007,1006,1000,1003,1005,1009,1012,1008,1005,999,1002,999,997,1001,998,1000,1003,1003,1001,998,995,991,994,994,998,996,994,993,991,990,992,990,986,984,987,990,990,990,985,983,987,984,986,985,981,981,982,984,983,981,978,978,977,980,980,979,978,978,978,983,982,979,978,975,978,980,981,980,982,982,985,988,985,985,983,981,980,985,988,987,988,989,990,987,983,981,978,979,982,987,991,986,988,987,990,991,990,990,991,997,999,1003,1002,997,996,990,990,994,991,989,987,986,988,988,986,982,981,977,980,982,984,977,972,971,969,967,964,964,961,962,964,966,965,965,961,962,964,963,963,963,963,965,971,975,981,980,980,978,981,984,984,981,979,979,982,986,989,990,987,989,994,997,995,992,988,986,992,994,991,992,987,986,988,986,988,989,985,975,966,954,944,940,946,958,972,990,1002,1012,1018,1027,1040,1055,1078,1109,1141,1166,1175,1169,1152,1126,1092,1059,1037,1024,1013,1006,999,997,996,999,994,994,994,995,997,1001,1004,1002,1002,1000,1001,1003,1006,1007,1004,1005,1006,1006,1005,1005,1004,1005,1006,1008,1013,1011,1012,1011,1012,1014,1016,1017,1014,1013,1011,1015,1015,1020,1018,1015,1015,1019,1020,1015,1019,1021,1024,1029,1026,1026,1023,1024,1026,1031,1036,1035,1037,1036,1037,1038,1036,1039,1038,1040,1041,1043,1042,1041,1037,1035,1034,1041,1042,1046,1045,1044,1044,1041,1040,1038,1036,1037,1038,1040,1034,1030,1025,1023,1025,1023,1020,1016,1015,1011,1011,1011,1007,1006,1000,999,1000,1000,1002,997,992,991,994,992,991,992,990,987,991,993,992,990,986,985,984,986,986,985,982,981,980,980,979,982,982,982,983,984,981,978,972,970,971,974,977,974,971,967,969,968,971,972,973,975,979,978,975,970,969,970,974,980,978,976,973,968,973,974,976,976,975,975,976,977,975,976,975,978,983,984,985,979,977,975,976,977,980,978,978,977,981,984,984,986,986,987,988,990,987,990,985,985,982,982,982,983,982,979,980,983,978,972,972,970,972,975,974,971,968,967,967,968,966,964,966,966,971,974,972,971,971,974,981,988,994,993,989,984,982,983,987,989,991,995,995,997,997,996,994,992,996,998,1001,1002,1001,997,998,995,994,991,984,975,967,962,961,969,980,990,1005,1015,1024,1034,1043,1054,1079,1117,1153,1170,1168,1151,1128,1101,1076,1053,1033,1019,1009,1010,1007,1008,1007,1009,1010,1016,1014,1008,1003,1003,1002,1006,1009,1015,1017,1014,1013,1015,1013,1014,1014,1017,1022,1026,1024,1021,1015,1016,1018,1021,1025,1023,1025,1026,1029,1029,1029,1024,1023,1023,1027,1033,1035,1033,1026,1025,1024,1030,1032,1034,1035,1038,1039,1041,1044,1044,1044,1046,1045,1048,1048,1047,1043,1044,1042,1047,1048,1053,1050,1053,1056,1057,1060,1058,1061,1057,1061,1061,1061,1058,1059,1057,1059,1059,1057,1054,1049,1046,1045,1045,1046,1044,1043,1039,1034,1035,1033,1028,1026,1022,1025,1024,1022,1020,1013,1009,1009,1012,1015,1017,1014,1010,1013,1009,1011,1006,1001,1003,1010,1014,1014,1010,1006,1001,1000,1003,1006,1008,1005,1004,1003,1002,998,998,993,995,997,1000,998,995,991,989,993,993,993,994,993,994,994,995,996,994,989,990,987,988,989,990,992,992,990,992,990,990,986,987,990,996,999,999,997,994,994,998,999,998,999,998,1000,1002,1000,997,994,993,996,999,1003,1004,999,992,995,998,999,1002,1006,1010,1011,1012,1006,1005,1005,1002,1006,1009,1010,1013,1010,1005,999,996,994,996,997,998,1002,1000,999,995,990,987,987,987,987,986,983,982,983,983,981,980,979,979,982,983,984,987,986,985,989,993,992,995,996,1001,1001,1004,1004,997,995,993,997,1002,1002,1004,1006,1006,1011,1015,1014,1012,1007,1004,1006,1008,1011,1009,1008,1008,1003,1006,1003,994,990,979,975,974,977,982,992,1005,1020,1032,1047,1057,1065,1080,1102,1133,1161,1175,1178,1171,1159,1142,1117,1087,1061,1042,1027,1016,1009,1004,1002,1001,1005,1007,1007,1005,1002,1003,1004,1007,1009,1008,1008,1009,1010,1008,1010,1008,1006,1005,1008,1012,1013,1010,1008,1009,1013,1012,1015,1015,1015,1013,1012,1012,1014,1013,1014,1015,1016,1017,1018,1017,1016,1015,1019,1022,1024,1025,1021,1019,1019,1020,1023,1024,1023,1023,1027,1028,1030,1030,1027,1025,1027,1031,1035,1037,1037,1035,1037,1040,1034,1033,1031,1032,1034,1039,1040,1044,1042,1042,1039,1037,1036,1037,1034,1039,1039,1045,1042,1040,1036,1032,1028,1031,1029,1027,1027,1026,1024,1023,1021,1015,1008,1005,1002,1005,1005,1003,1003,1000,996,996,994,993,991,990,988,989,990,990,989,986,989,987,987,984,982,980,981,984,985,983,981,981,980,979,975,975,975,974,976,979,982,980,977,973,974,975,975,971,967,965,970,971,974,976,966,968,967,964,964,963,962,966,970,970,969,965,963,959,962,961,963,966,967,968,967,962,964,962,960,962,964,971,971,970,962,962,964,970,972,971,971,969,970,974,972,971,967,967,970,972,973,973,972,971,972,972,970,971,970,970,970,976,978,980,977,979,981,985,985,984,982,977,979,986,988,984,976,970,969,973,971,973,969,968,972,968,967,964,959,956,959,961,960,957,956,954,953,950,952,952,952,952,956,959,959,962,961,960,964,970,971,976,972,970,965,965,969,972,973,973,975,977,975,976,974,973,978,982,984,988,988,983,984,980,979,979,974,970,967,962,951,944,938,940,951,964,975,987,995,1001,1010,1020,1027,1038,1057,1085,1119,1145,1152,1147,1129,1106,1079,1054,1032,1014,1000,991,990,987,989,990,990,986,988,992,991,989,988,987,985,990,991,993,991,993,993,992,991,992,990,991,999,1004,1004,1003,999,996,995,997,1000,1004,1003,1004,1007,1007,1005,1001,1000,1000,1003,1005,1007,1011,1011,1009,1010,1011,1012,1014,1011,1012,1014,1017,1018,1018,1017,1016,1017,1019,1022,1024,1021,1022,1022,1027,1027,1025,1026,1028,1029,1034,1033,1034,1035,1032,1038,1039,1041,1040,1036,1037,1039,1039,1037,1036,1035,1036,1034,1037,1037,1031,1026,1023,1026,1027,1026,1024,1022,1017,1014,1012,1009,1006,1000,997,1002,1002,1002,1002,999,994,994,995,996,992,988,987,990,994,993,992,987,985,984,987,984,986,987,986,990,992,991,988,984,979,978,978,983,987,986,986,985,986,982,978,977,974,975,973,977,977,975,974,976,975,974,973,972,974,974,977,977,975,973,971,971,973,972,969,973,972,973,978,976,977,976,972,974,977,978,975,975,977,979,982,982,980,979,977,978,978,979,978,978,979,983,984,984,984,984,981,979,983,982,982,981,982,985,985,987,986,981,977,977,979,981,986,992,995,996,1000,1000,994,992,991,993,993,993,993,993,995,991,993,987,985,987,986,989,992,991,986,985,980,978,977,977,976,975,976,976,978,975,971,968,965,965,967,967,966,969,970,973,975,974,974,974,974,977,979,987,987,988,994,996,995,993,988,989,987,991,992,995,996,995,995,1001,1003,1003,1002,1000,997,997,999,1000,1000,1003,1003,1002,1005,1005,1001,995,988,983,974,971,976,986,997,1014,1028,1042,1051,1059,1067,1076,1089,1109,1133,1158,1174,1180,1171,1158,1139,1110,1077,1052,1034,1019,1008,1000,998,999,1004,1004,1007,1004,1004,1004,1003,1002,1003,1002,1000,1004,1007,1007,1007,1005,1005,1007,1007,1010,1010,1009,1009,1007,1012,1012,1015,1014,1010,1015,1018,1020,1019,1020,1020,1020,1023,1023,1023,1022,1021,1020,1025,1026,1025,1027,1027,1028,1027,1027,1024,1027,1027,1027,1031,1031,1034,1030,1032,1032,1035,1033,1034,1034,1033,1038,1043,1043,1043,1042,1042,1041,1041,1042,1043,1043,1045,1049,1050,1052,1050,1044,1040,1042,1043,1047,1047,1046,1046,1048,1051,1050,1046,1040,1033,1030,1031,1029,1031,1029,1022,1020,1019,1018,1011,1008,1007,1008,1010,1008,1007,1003,1000,1000,1002,1000,997,994,997,992,996,1000,996,993,991,993,995,997,995,992,989,991,997,995,996,993,990,991,989,990,989,983,982,985,989,989,988,987,985,984,983,982,977,977,977,977,981,980,983,978,977,976,977,975,974,972,972,975,980,980
