912,912,912,911,910,912,911,913,914,917,919,920,920,923,923,924,925,927,925,924,924,926,927,929,931,934,934,935,937,936,937,934,937,939,940,940,944,945,949,946,945,946,946,945,944,949,949,953,955,956,957,955,954,950,952,950,951,950,951,953,955,955,956,955,952,954,953,952,954,955,956,959,962,967,967,971,969,971,970,970,968,969,967,966,964,965,963,958,951,949,942,938,937,931,932,932,933,934,932,931,929,923,925,923,922,922,924,929,929,931,931,928,926,928,928,930,929,931,933,935,938,936,938,939,938,938,936,937,938,940,941,944,947,947,946,948,946,944,941,942,943,941,944,946,943,947,942,943,943,939,937,936,936,936,937,938,938,939,938,938,935,930,929,928,927,928,928,930,929,931,928,927,923,921,920,920,920,923,919,921,922,922,922,921,920,918,915,914,916,918,920,920,922,922,922,921,919,916,916,912,913,915,917,918,921,922,921,921,917,918,914,913,914,914,916,916,918,920,917,918,917,917,916,914,912,914,915,916,919,918,918,918,916,916,910,912,914,913,915,917,918,920,920,917,917,914,914,915,912,912,913,916,917,921,922,923,920,918,914,917,915,912,916,916,915,916,920,919,919,920,920,920,925,927,930,933,934,937,936,937,938,939,938,935,932,927,927,927,924,927,924,926,927,927,924,918,916,916,916,917,918,923,920,924,927,932,940,951,969,1002,1045,1095,1160,1226,1279,1312,1319,1289,1217,1101,973,845,722,697,726,782,833,871,889,895,889,886,888,895,901,909,911,911,912,909,905,903,902,899,901,904,906,908,910,914,910,911,910,912,911,911,911,913,914,915,917,921,922,922,922,917,921,919,921,921,921,924,926,927,929,929,929,929,928,927,930,931,934,935,938,941,941,939,942,941,943,944,943,943,943,949,949,946,952,952,949,952,950,949,949,948,949,948,949,951,950,948,950,951,946,944,945,946,948,948,951,955,956,959,959,961,963,963,965,966,968,966,965,964,962,958,956,953,949,946,945,944,942,939,938,935,935,931,929,928,924,923,923,922,924,924,929,928,927,926,925,927,928,927,926,930,932,931,934,935,937,938,939,937,935,936,936,940,942,944,945,946,950,947,946,947,943,945,943,944,943,946,946,948,949,949,946,945,942,940,940,938,941,941,940,940,940,940,936,935,935,931,929,932,930,932,932,933,932,932,930,930,927,925,923,925,923,923,924,924,925,923,921,921,920,920,920,921,919,919,920,922,921,920,921,921,920,917,917,916,918,915,919,919,920,921,921,920,915,916,914,915,915,917,916,919,919,919,917,916,915,914,916,914,916,915,918,917,919,920,915,915,914,914,916,914,915,916,917,920,920,918,919,917,917,914,912,914,915,917,918,922,921,921,918,918,916,915,917,915,917,918,918,919,920,918,919,917,916,916,919,921,925,930,935,939,936,937,937,937,936,934,937,938,936,934,930,931,930,929,927,927,927,925,923,921,919,917,917,919,918,918,921,921,922,924,926,929,939,948,964,990,1028,1079,1140,1211,1275,1314,1322,1279,1169,1041,913,785,693,719,774,832,872,893,901,901,897,901,903,905,906,906,908,904,902,902,900,903,902,903,905,909,909,912,911,910,912,910,909,909,910,916,919,918,922,918,919,918,917,918,920,920,920,924,926,928,929,930,929,928,927,927,927,930,930,932,933,936,937,936,937,936,936,937,939,940,941,944,945,948,949,947,946,945,946,946,942,943,944,944,944,947,945,946,944,943,941,941,940,939,942,943,948,950,952,952,953,956,957,957,958,957,962,964,963,962,963,961,958,955,952,949,943,940,941,939,938,940,936,935,931,930,926,924,923,923,924,926,926,926,925,924,921,919,921,919,919,920,921,920,923,926,927,929,927,926,926,923,924,925,925,929,930,934,934,934,933,932,932,932,932,934,934,936,936,938,938,936,935,935,935,933,932,933,933,935,934,933,933,932,927,925,926,924,923,923,925,925,925,926,925,923,921,921,917,916,913,914,916,914,915,917,918,918,916,915,913,913,912,911,911,911,914,915,913,912,910,909,907,907,906,906,908,909,909,911,913,913,911,906,908,905,904,906,906,909,910,911,910,909,909,905,903,905,905,904,906,907,906,912,909,909,907,909,906,907,908,906,905,907,906,907,912,912,909,910,908,905,907,907,907,909,910,913,913,911,910,907,906,907,906,907,907,910,910,912,913,913,911,911,908,907,908,909,911,913,916,921,924,927,925,927,925,927,923,928,929,928,926,927,920,918,916,917,914,915,917,917,916,915,913,913,911,911,912,913,913,912,917,921,926,936,950,973,1010,1057,1120,1192,1258,1306,1323,1309,1253,1150,1022,894,766,718,735,778,830,867,886,887,885,887,885,891,892,897,900,901,897,895,891,890,890,891,891,894,898,900,901,901,897,899,897,898,901,902,907,909,907,906,905,908,908,909,908,909,911,913,916,919,920,920,919,920,918,916,916,916,920,922,925,929,930,930,930,931,930,930,931,930,933,937,939,940,940,942,944,944,938,938,940,940,943,944,947,948,951,949,949,949,947,947,944,948,951,953,954,958,958,960,959,961,963,965,966,968,970,972,971,971,969,966,961,958,955,951,946,946,944,942,940,940,937,932,926,922,924,923,921,920,920,919,921,920,920,919,919,918,919,916,916,914,914,916,921,923,925,922,919,919,917,919,918,919,921,925,926,928,930,929,929,929,929,929,929,929,930,932,931,934,933,935,932,931,929,929,928,929,930,931,932,934,930,930,927,923,925,922,925,923,923,923,923,923,920,919,917,916,916,914,914,914,913,915,917,916,915,914,915,911,911,910,910,909,909,910,910,911,911,911,912,910,910,908,909,910,907,906,907,909,911,911,912,908,908,906,904,906,906,907,905,907,907,908,909,906,906,906,906,906,907,907,908,910,908,907,909,908,906,904,904,906,907,907,909,908,910,908,908,906,907,902,905,905,904,904,904,907,906,908,909,911,907,906,906,906,908,910,911,913,912,913,913,908,907,909,909,912,917,920,920,925,926,925,925,924,925,923,922,917,915,916,913,915,917,918,919,916,915,913,910,909,905,907,910,910,914,915,916,915,919,922,931,944,970,1008,1058,1122,1196,1265,1314,1333,1314,1243,1119,991,863,735,709,741,795,845,880,893,894,890,885,885,888,893,898,899,899,894,892,890,890,886,887,888,890,893,894,897,897,898,896,896,894,898,898,898,901,901,903,905,906,907,906,908,908,908,907,909,911,912,916,918,919,919,919,919,915,918,919,922,922,923,927,931,932,933,932,932,933,931,933,933,934,938,941,942,945,943,943,942,941,940,940,941,942,945,945,947,947,946,949,947,947,946,948,948,950,953,958,960,964,966,968,969,966,968,964,963,960,958,956,955,952,946,946,940,938,933,929,929,927,925,923,923,922,918,918,916,914,913,913,912,912,914,915,916,915,917,915,917,915,914,916,919,917,920,922,923,924,924,924,924,923,923,923,923,922,929,930,933,937,936,935,934,932,931,929,928,930,931,932,934,933,934,934,931,929,929,928,929,928,929,931,929,928,929,925,926,924,921,922,920,919,921,922,922,923,921,919,918,915,914,913,916,914,914,915,918,917,915,916,914,915,910,913,912,910,910,911,910,915,913,911,909,908,909,908,909,908,911,910,913,911,909,907,906,907,908,905,908,908,909,912,911,911,911,912,910,908,909,907,907,909,910,911,913,912,910,914,911,911,909,908,909,908,910,911,913,913,911,911,908,909,911,910,911,909,910,913,913,915,914,913,912,911,911,911,911,913,914,915,916,918,918,920,920,923,925,924,928,932,932,933,932,934,931,930,926,925,920,921,918,917,921,922,924,927,929,927,925,920,916,912,912,913,918,922,924,926,932,936,943,954,974,1010,1059,1123,1198,1265,1313,1332,1309,1240,1117,989,861,733,703,738,797,851,884,903,907,901,897,899,900,900,904,905,905,906,907,903,908,905,904,905,902,903,902,904,908,910,914,915,915,913,914,915,916,914,917,917,919,921,922,922,921,925,924,919,921,923,927,926,928,930,931,934,934,934,935,933,931,932,933,936,939,940,944,946,944,943,944,944,943,941,942,944,945,947,949,952,952,953,950,952,948,949,947,946,947,948,948,949,950,950,949,947,943,942,943,943,945,948,952,956,960,961,960,962,965,965,968,967,967,968,966,962,959,957,954,953,950,946,946,941,942,938,937,938,935,932,929,926,924,924,923,924,924,927,927,926,925,926,923,922,921,923,924,925,927,929,930,933,934,933,932,933,932,930,933,933,935,940,942,946,946,944,945,943,943,943,945,944,946,946,946,947,947,947,946,946,942,942,939,937,937,940,940,939,939,940,936,931,932,931,933,931,930,930,931,929,928,929,925,925,924,922,924,924,923,922,924,926,921,922,921,919,919,917,916,919,920,920,922,922,919,917,915,916,915,913,911,912,912,913,915,916,916,915,916,914,912,913,913,915,916,916,916,916,916,915,912,913,913,911,912,914,915,916,915,915,917,917,915,913,912,914,912,914,914,912,916,914,914,915,914,914,912,909,912,912,914,916,916,917,917,917,915,914,914,911,915,915,916,921,926,932,934,935,935,933,930,927,926,924,921,925,926,925,926,929,929,927,925,924,919,916,915,914,913,916,919,918,922,925,928,931,937,948,968,995,1029,1075,1133,1195,1257,1303,1322,1313,1264,1171,1043,915,787,708,709,751,808,851,878,886,888,887,888,893,900,909,910,910,907,904,901,899,898,898,902,906,907,909,910,910,908,907,905,906,906,909,912,914,915,919,917,917,916,916,915,917,919,915,919,920,922,924,925,926,926,926,927,925,924,925,929,931,932,937,936,936,936,936,936,936,935,938,940,941,947,947,948,944,945,945,947,945,944,945,948,949,949,952,952,951,948,947,946,946,946,947,948,949,949,949,948,948,947,948,949,951,954,958,961,963,967,970,968,970,968,964,961,956,952,953,950,950,949,948,944,940,938,936,931,930,929,927,928,928,929,930,928,925,925,923,918,920,918,924,925,926,927,925,925,926,927,927,926,925,925,927,930,932,938,940,941,938,938,938,936,935,938,941,944,943,945,945,946,942,939,940,940,937,939,939,942,938,940,940,938,938,933,932,930,929,931,929,930,930,930,932,930,929,926,923,923,921,922,923,923,924,924,925,923,922,923,921,918,917,917,916,922,921,925,925,920,919,919,919,918,917,917,917,918,919,919,920,921,921,919,916,915,913,914,917,919,921,921,921,921,918,915,916,913,914,913,916,915,913,914,919,918,919,916,914,917,914,915,914,915,917,918,920,918,913,915,913,914,913,913,915,917,918,918,919,920,919,921,922,924,927,927,930,932,936,939,940,938,935,931,928,925,922,920,925,927,926,929,928,929,928,924,922,918,915,915,914,917,917,920,923,926,928,933,941,948,965,991,1031,1084,1149,1221,1284,1325,1337,1315,1245,1125,997,869,741,700,728,782,837,873,889,892,890,883,884,888,893,902,905,907,904,903,898,898,896,896,896,897,899,898,901,902,906,903,904,906,906,905,904,904,907,908,911,910,914,916,914,915,915,915,914,915,917,918,921,923,924,927,927,926,927,926,926,928,930,930,934,935,939,940,937,937,937,936,937,936,941,942,943,945,947,947,947,946,943,943,947,946,946,948,948,950,951,951,952,951,951,952,952,955,957,959,962,966,969,970,972,970,969,967,962,962,961,958,955,952,950,947,945,941,940,934,928,926,924,921,923,926,924,920,920,918,917,914,915,913,917,916,917,916,919,917,919,918,918,917,916,917,919,918,922,924,926,927,927,925,923,924,922,925,923,928,930,931,931,935,932,931,930,930,929,929,929,930,931,931,930,929,929,927,926,923,924,925,924,923,924,926,924,925,921,923,918,917,915,914,915,916,917,917,918,915,915,914,913,911,909,909,910,908,910,913,912,913,912,911,911,906,904,906,907,908,911,911,912,910,910,907,906,905,905,904,903,907,904,908,908,908,906,905,905,904,905,905,904,904,905,907,908,909,909,909,907,907,904,904,904,905,905,909,909,909,909,907,905,904,904,904,906,905,905,904,906,908,908,906,906,903,903,904,903,906,905,909,908,912,909,909,909,908,906,905,907,909,910,913,915,918,920,924,925,923,924,922,919,919,918,918,919,919,920,919,920,919,917,917,916,917,916,918,913,911,912,910,912,912,914,918,921,928,936,947,965,999,1048,1114,1191,1266,1317,1324,1280,1171,1043,915,787,718,744,795,847,884,897,902,899,898,897,897,899,896,897,897,895,893,890,895,894,897,897,898,897,898,897,900,898,898,899,899,900,902,903,904,904,907,913,910,910,911,909,911,913,915,918,920,923,922,922,922,921,921,920,920,924,926,926,930,932,934,932,933,933,931,933,934,936,937,940,942,944,945,946,946,941,944,944,941,946,948,947,949,950,951,952,953,951,950,953,956,957,961,964,967,969,970,972,972,971,972,970,968,965,963,962,960,958,955,953,952,947,945,939,939,933,932,933,933,932,928,927,926,923,920,916,918,919,917,917,919,923,922,921,920,920,916,917,917,919,920,921,923,926,927,925,922,923,922,920,922,922,923,926,928,934,933,934,934,934,930,929,929,930,930,932,933,935,936,935,934,932,930,930,929,931,931,932,931,933,927,928,930,928,927,924,923,925,923,924,924,926,925,922,923,920,921,917,917,917,916,919,922,922,922,921,923,918,918,917,916,914,914,916,917,919,919,915,915,915,915,913,914,913,913,914,915,914,915,915,917,912,911,911,912,912,915,915,918,917,920,917,915,915,915,912,913,914,915,915,914,916,913,913,914,914,913,913,912,912,913,914,915,917,917,917,917,915,912,913,910,910,911,913,915,917,916,914,917,914,914,914,913,912,912,914,916,917,923,926,925,928,930,929,929,929,930,930,930,924,925,923,922,921,923,923,920,923,925,925,924,922,921,919,917,914,916,916,920,922,929,936,944,959,980,1012,1055,1111,1179,1246,1303,1336,1333,1299,1214,1086,958,830,712,701,740,799,851,883,896,896,892,892,893,900,902,907,909,907,907,905,903,903,903,905,907,908,907,908,906,905,906,906,909,910,912,917,918,916,917,916,917,916,916,919,922,924,925,929,929,929,928,926,927,926,925,927,930,931,935,938,940,940,938,936,934,936,935,938,940,940,944,948,948,950,948,948,947,945,949,946,946,948,953,957,952,954,953,953,951,949,948,950,951,953,954,954,954,955,954,953,954,951,952,953,957,963,966,972,974,975,974,973,972,967,963,964,964,961,961,959,957,954,950,946,944,940,936,935,931,931,931,932,934,932,932,931,928,925,927,926,927,929,929,931,933,931,930,932,931,929,930,931,933,935,935,938,938,939,940,940,941,941,943,944,944,944,945,946,947,948,950,949,946,947,947,945,946,947,949,948,948,947,942,945,943,943,941,943,941,940,940,939,941,940,940,937,935,933,931,934,934,934,935,935,936,933,931,928,929,929,929,926,929,930,928,929,927,927,927,926,926,924,924,923,922,924,925,928,928,926,926,924,923,922,922,922,925,925,925,924,926,924,925,922,921,922,922,922,923,923,925,924,923,923,922,918,917,915,915,919,921,923,924,926,925,923,922,920,920,920,922,920,921,922,925,929,927,927,927,925,923,920,924,923,927,930,933,938,942,943,943,943,937,940,938,938,933,932,932,936,936,939,936,936,935,933,929,926,926,928,929,931,931,930,929,928,933,934,938,944,956,973,1000,1043,1095,1160,1231,1288,1326,1327,1285,1180,1052,924,796,706,725,778,836,879,901,907,905,902,904,907,910,918,920,918,918,915,910,911,909,907,910,914,917,920,917,920,920,920,921,920,922,922,923,924,924,927,928,930,928,927,927,930,929,929,933,935,935,938,939,939,939,939,938,935,935,937,940,945,946,948,949,951,950,950,950,949,952,952,953,955,953,959,959,958,959,955,955,955,953,955,955,956,956,958,960,960,958,956,953,954,955,954,956,957,958,961,962,963,965,965,966,968,970,971,972,974,975,976,978,973,969,970,966,963,956,954,951,950,949,949,948,948,943,941,938,937,932,932,932,933,930,932,934,934,933,930,932,932,930,929,932,934,935,934,939,939,939,938,938,937,936,940,942,942,946,948,947,949,947,948,949,947,950,950,951,951,954,954,955,955,952,948,949,947,948,947,949,949,951,951,951,949,948,944,942,940,939,940,939,941,941,943,938,940,940,936,935,931,932,930,932
