835,839,844,843,845,843,843,845,846,843,844,849,854,862,867,872,873,875,875,877,877,871,866,868,867,868,863,861,859,863,858,856,846,840,833,832,825,823,825,824,827,827,824,817,815,814,818,818,814,814,817,820,823,822,812,804,794,785,778,777,784,800,827,864,910,953,992,1023,1061,1095,1126,1147,1160,1166,1166,1163,1153,1138,1114,1072,1015,946,892,848,826,818,826,842,853,856,848,837,826,818,812,806,805,803,807,810,810,814,809,810,810,812,812,811,805,806,813,818,814,813,813,813,816,817,816,809,805,808,814,821,823,824,820,818,822,823,821,820,817,820,822,826,829,829,825,826,826,827,829,829,829,828,830,835,839,840,840,838,835,837,839,838,837,835,833,837,840,839,838,837,836,837,839,837,833,831,834,840,844,845,841,831,835,830,831,834,830,827,830,831,835,839,835,834,828,827,826,829,831,829,829,829,832,835,835,833,825,828,824,830,827,823,824,825,824,829,829,825,820,815,817,817,818,814,814,809,811,817,815,815,808,806,810,806,809,811,810,808,809,813,816,815,813,809,808,809,809,810,815,816,815,820,821,824,821,818,813,816,819,821,818,822,822,830,833,834,832,828,822,824,831,837,848,850,853,854,855,863,867,869,866,863,860,862,866,867,866,863,862,858,858,858,857,850,850,847,848,844,840,831,829,824,824,823,820,815,814,812,813,817,820,816,814,812,815,814,816,815,812,808,808,809,808,800,786,776,774,781,800,827,862,899,945,988,1027,1062,1085,1111,1132,1144,1156,1155,1152,1141,1134,1123,1108,1071,1018,955,893,845,823,814,820,828,841,845,845,839,829,815,805,804,804,804,801,800,801,801,804,809,811,807,802,802,804,808,808,804,805,804,805,812,810,810,808,806,805,804,809,806,808,810,811,815,817,810,809,812,815,815,814,813,817,819,820,818,820,820,824,824,826,821,818,822,823,829,833,833,830,828,828,829,830,830,827,829,831,833,833,833,832,832,831,834,835,831,827,825,829,832,836,836,833,829,827,829,831,830,823,821,823,829,830,831,829,823,823,817,823,824,823,818,821,820,821,825,827,824,823,824,822,824,820,813,819,820,822,825,817,813,812,811,810,810,804,802,803,810,815,816,811,809,810,812,812,810,806,806,806,811,812,816,816,814,816,816,814,814,806,808,815,818,819,819,818,815,817,819,817,819,817,818,825,828,832,831,827,827,831,839,844,842,843,849,856,861,867,863,863,867,863,866,858,855,858,859,858,859,857,858,855,858,854,845,831,825,821,820,822,820,820,817,818,820,821,816,816,814,808,813,814,818,819,817,817,820,820,813,805,794,779,776,778,784,799,825,859,901,944,982,1021,1053,1089,1123,1149,1166,1174,1176,1170,1163,1148,1123,1084,1028,965,906,865,839,831,833,845,856,856,855,840,828,815,810,805,807,806,807,809,814,816,811,805,808,808,815,819,820,818,819,817,816,817,816,815,810,806,808,815,817,817,818,817,820,821,822,820,817,813,817,821,824,828,829,828,829,832,828,826,821,817,816,823,830,831,832,830,834,833,835,836,835,830,831,836,841,844,842,842,840,842,840,840,835,834,839,842,844,844,844,844,846,848,842,839,838,836,839,844,842,843,842,838,839,841,839,836,832,827,832,836,839,843,839,837,835,836,837,832,830,829,831,834,842,844,838,833,829,830,830,833,831,828,827,828,831,829,829,825,825,828,826,826,823,819,817,821,824,826,827,827,824,825,827,824,823,824,820,825,828,830,832,831,834,835,831,827,825,831,837,841,841,842,841,843,846,850,849,851,853,860,864,871,873,878,876,879,880,882,879,878,876,876,875,878,877,872,871,871,871,869,859,850,846,844,844,845,842,839,839,842,840,835,832,829,825,828,831,833,833,830,831,836,837,833,825,817,811,802,795,792,794,810,833,873,917,963,994,1026,1058,1096,1123,1146,1165,1174,1175,1174,1168,1156,1133,1099,1049,989,931,881,847,832,838,850,864,869,868,856,844,838,834,830,825,821,820,823,827,828,823,824,823,826,826,828,824,822,827,830,830,830,825,824,820,824,824,823,825,826,831,834,836,834,828,831,829,830,830,825,825,829,832,835,837,835,836,836,838,838,838,833,834,837,842,847,847,847,838,839,839,839,843,844,840,842,846,852,850,851,845,839,837,844,849,852,852,854,855,858,859,854,848,842,842,846,848,848,848,845,847,849,847,849,845,841,841,842,846,848,847,847,848,848,847,847,839,836,836,838,843,843,841,842,843,846,843,838,835,831,831,835,834,837,833,834,837,840,838,833,831,829,828,831,834,833,832,831,834,835,842,840,835,833,829,830,836,838,838,839,841,842,845,848,844,842,840,846,851,854,856,852,852,857,860,864,867,869,869,875,881,884,886,888,884,886,889,890,888,880,879,873,877,879,878,875,873,871,871,868,859,850,845,843,846,845,844,842,841,841,842,843,839,836,833,834,836,838,838,836,834,832,833,831,822,808,796,791,795,808,829,856,892,935,978,1021,1054,1084,1112,1136,1160,1173,1177,1175,1171,1157,1140,1116,1068,1009,942,890,856,842,846,854,861,873,875,870,860,845,832,825,824,824,825,827,827,831,828,833,831,831,828,828,831,833,834,834,831,830,832,837,835,835,830,831,833,837,840,836,835,833,835,834,836,835,832,831,834,837,843,844,843,842,843,844,847,845,844,842,842,848,852,853,850,849,850,854,855,856,852,848,849,850,851,857,860,857,857,858,858,859,858,854,852,855,856,860,859,855,853,854,856,853,856,849,846,844,850,855,856,854,849,848,851,849,848,845,842,842,843,847,851,850,846,843,842,841,841,844,841,843,840,842,846,844,839,838,833,832,832,835,832,829,828,831,837,839,833,830,826,826,826,827,826,825,825,828,831,834,832,830,825,825,826,829,831,831,829,831,832,837,837,834,828,830,831,831,832,830,833,834,837,842,841,840,836,836,840,845,845,841,838,843,847,853,858,864,861,860,860,866,870,872,872,870,873,874,878,873,870,865,862,855,858,862,860,857,855,855,848,844,839,834,825,825,826,827,827,825,824,824,824,824,821,818,816,816,815,821,823,822,819,816,813,807,799,787,778,783,800,829,865,907,951,996,1036,1074,1103,1124,1138,1149,1152,1150,1142,1131,1120,1105,1076,1030,968,901,850,819,810,817,830,841,843,845,839,830,817,807,800,802,800,804,803,802,806,806,808,805,807,805,802,802,805,808,810,811,807,811,807,811,810,808,804,806,803,808,812,813,812,814,814,818,816,816,813,810,811,812,816,820,817,823,820,825,825,820,820,817,819,824,827,830,825,826,828,831,832,831,829,825,824,830,833,836,831,834,831,831,833,832,829,829,831,832,835,833,826,832,832,833,833,829,822,819,819,822,825,826,825,826,827,830,828,827,822,820,820,822,825,825,824,824,825,822,824,820,818,815,815,815,815,812,814,814,814,812,808,805,805,806,806,801,801,803,802,808,806,801,798,801,801,798,800,799,801,805,806,810,810,807,805,808,811,811,808,803,807,810,812,816,815,812,815,815,818,823,820,816,819,824,827,835,836,838,841,845,849,854,850,850,851,854,861,863,858,854,851,848,846,845,843,839,841,844,842,835,830,820,818,813,813,810,805,806,809,814,813,810,807,806,805,805,806,804,801,803,802,805,805,800,788,775,766,765,772,781,801,830,874,920,962,1003,1038,1070,1099,1125,1137,1145,1142,1134,1126,1117,1098,1065,1012,946,887,844,816,807,809,821,832,841,837,829,815,808,802,798,793,791,794,795,796,800,801,803,803,802,806,803,798,794,794,796,802,804,802,802,800,798,802,801,802,799,799,799,803,807,807,807,806,807,806,807,808,805,804,804,809,814,811,810,810,811,815,816,816,817,813,817,821,822,822,822,822,822,827,827,826,821,820,819,823,825,827,831,827,827,830,826,827,823,819,823,825,828,823,820,820,823,826,821,817,812,812,815,818,821,819,818,816,815,815,815,816,813,809,814,815,818,816,815,815,815,815,813,810,805,802,804,807,809,806,807,804,802,808,808,805,797,794,797,801,800,802,798,799,801,804,803,802,798,796,797,801,805,805,804,805,805,806,806,806,803,803,805,806,805,807,805,810,814,816,814,814,815,815,817,817,820,825,833,837,841,847,848,849,845,850,854,856,856,854,852,851,853,851,848,840,835,837,838,840,840,834,827,822,820,818,815,808,806,804,806,809,808,804,804,807,811,809,806,804,803,805,806,804,798,793,790,781,774,769,772,784,814,853,891,936,979,1018,1055,1090,1121,1137,1147,1148,1145,1136,1118,1098,1061,1009,947,888,843,816,804,812,827,836,838,833,823,817,811,809,805,800,794,794,795,796,797,794,796,797,803,805,806,806,802,798,802,804,805,803,801,805,809,811,813,807,806,803,802,805,811,808,809,807,810,817,817,815,812,810,813,815,817,813,815,817,821,826,825,823,819,821,823,821,820,817,822,825,832,833,831,827,826,826,822,826,822,823,823,828,834,836,835,832,830,829,829,831,831,827,828,825,830,833,831,826,821,816,821,820,818,816,821,826,829,831,831,828,824,822,822,821,819,815,817,824,829,831,827,823,817,815,817,813,811,806,810,815,818,817,816,814,808,809,805,802,799,800,807,810,814,811,808,807,807,810,812,812,808,809,810,814,819,820,817,815,816,816,816,819,815,819,822,826,829,832,832,828,829,830,835,837,834,838,847,856,865,869,872,872,871,872,871,869,866,867,868,866,865,861,856,857,857,855,851,840,835,830,829,831,831,825,826,826,829,825,823,818,817,819,825,825,823,820,820,819,818,810,801,788,777,773,776,785,803,830,864,908,949,984,1016,1047,1079,1109,1138,1158,1169,1173,1171,1166,1155,1138,1105,1061,1003,943,890,856,838,832,840,847,862,863,856,845,830,824,821,817,821,814,812,809,809,810,810,809,809,809,812,817,821,821,820,815,812,815,817,820,820,820,817,820,821,820,816,813,810,811,815,817,819,817,813,819,825,826,826,822,819,818,821,823,826,825,824,824,827,832,835,829,829,824,825,828,831,832,833,831,835,838,840,840,834,834,835,833,835,838,837,838,839,841,844,843,841,834,835,840,843,843,844,846,846,847,844,847,843,837,837,834,837,839,839,838,837,840,843,843,843,837,830,834,838,842,842,839,837,836,837,839,841,837,834,832,837,840,836,836,836,833,835,834,835,827,821,822,825,829,828,832,829,824,827,829,832,832,834,833,830,832,834,834,835,831,828,830,834,836,835,837,830,834,838,846,848,848,846,845,845,852,856,853,859,865,869,877,882,882,881,882,881,883,880,875,875,877,880,883,879,876,874,868,868,868,867,866,860,853,851,852,850,851,846,841,839,841,839,836,835,833,836,838,841,841,835,836,835,836,835,830,824,814,809,802,800,804,812,831,853,886,926,964,995,1027,1057,1092,1126,1152,1168,1172,1172,1166,1158,1145,1114,1069,1011,944,891,855,835,836,846,863,868,865,858,847,840,833,833,832,826,828,828,830,831,830,828,827,829,836,837,838,838,836,835,835,832,830,827,825,836,838,839,841,837,833,832,835,834,834,832,828,833,836,842,844,842,842,840,844,842,845,845,840,844,850,853,856,854,851,850,853,854,853,851,852,851,857,858,858,853,855,859,854,851,851,851,857,863,865,866,863,859,861,865,862,860,858,855,859,861,862,862,861,860,861,860,857,852,851,850,853,858,859,854,854,854,854,858,857,853,850,850,854,854,859,857,859,853,851,853,852,852,845,842,843,848,852,852,853,848,846,847,847,847,845,842,843,850,850,851,850,849,848,848,846,844,846,846,850,854,853,851,856,857,857,861,862,863,861,863,862,868,870,870,876,878,878,885,886,885,892,894,901,903,903,897,899,899,899,902,898,895,888,888,891,893,895,892,888,882,877,877,872,864,857,853,857,860,862,858,858,854,852,855,851,848,850,848,850,856,854,853,852,847,837,826,819,813,818,838,871,913,957,999,1042,1074,1104,1134,1154,1166,1170,1172,1170,1167,1159,1147,1131,1103,1056,994,930,882,851,842,849,865,878,881,879,873,864,858,851,842,835,833,836,839,841,841,839,840,839,844,843,845,838,839,843,846,849,847,843,843,843,842,847,843,841,836,838,843,848,851,851,850,850,850,850,846,845,844,845,846,854,854,852,856,857,857,857,857,855,853,853,858,860,862,864,860,861,860,861,864,860,858,856,860,867,868,869,864,863,863,864,864,862,860,861,861,863,865,866,862,860,859,861,863,863,861,857,856,857,856,862,864,861,856,853,853,855,854,853,850,851,853,857,859,857,852,848,851,849,850,849,844,851,853,854,852,849,845,843,845,845,841,841,833,832,839,842,842,837,834,830,830,831,832,831,832,834,838,843,842,839,835,832,831,833,836,837,833,835,839,840,841,842,843,843,844,849,850,850,850,850,851,857,859,863,867,866,869,871,874,879,878,882,883,886,885,882,880,876,876,877,874,869,864,865,866,866,864,855,847,844,842,840,835,834,831,830,838,840,838,833,828,825,829,831,831,826,828,829,832,827,821,808,798,791,791,797,805,822,852,889,931,970,1006,1036,1065,1094,1123,1144,1162,1169,1167,1162,1153,1149,1139,1124,1087,1033,968,907,864,836,829,832,840,855,864,862,853,834,825,815,815,811,812,814,816,818,820,820,819,817,818,819,820,820,818,820,823,826,828,824,820,820,821,823,824,823,824,825,828,830,833,831,829,829,830,833,831,829,827,833,837,841,840,837,833,835,839,840,841,838,840,839,843,849,848,846,847,846,843,845,844,844,844,847,849,852,849,844,845,846,848,849,845,844,846,847,848,846,846,847,846,845,844,839,835,841,842,843,844,842,841,843,840,842,838,837,837,837,842,842,839,836,836,837,838,837,834,827,823,827,831,835,832,828,828,826,828,829,824,820,814,819,824,823,823,824,825,826,828,828,826,821,821,824,826,830,827,825,829,831,835,833,830,827,826,830,832,835,836,839,845,845,845,843,841,843,846,853,858,861,867,869,876,882,884,879,875,874,876,876,876,873,871,874,873,871,866,864,858,857,855,850,843,836,835,833,836,834,833,827,823,821,822,823,821,822,823,825,829,830,824,823,818,816,817,815,807,795,787,784,792,810,833,861,893,935,977,1018,1058,1096,1127,1150,1170,1176,1173,1160,1146,1132,1113,1075,1021,956,896,856,838,832,838,844,847,850,850,844,836,826,820,812,815,815,816,811,809,807,809,816,814,815,818,816,818,820,820,819,818,813,813,818,817,823,821,822,824,823,827,824,819,819,820,824,827,828,827,826,826,830,832,831,827,828,829,830,832,834,834,835,839,843,844,839,834,834,838,838,843,843,843,839,845,846,844,848,844,843,841,842,846,849,848,849,849,849,850,852,847,845,838,842,846,851,847,845,844,846,844,847,845,841,837,838,839,843,844,841,840,840,844,843,841,836,833,834,836,840,845,843,840,835,835,836,832,829,826,826,825,826,830,831,827,825,824,824,825,818,816,815,818,824,826,825,826,822,823,825,826,826,824,820,819,821,824,829,827,826,823,827,831,830,825,824,824,830,836,841,843,842,841,841,843,847,846,846,849,859,863,871,873,873,874,877,879,878,879,876,873,875,878,880,877,868,868,866,864,864,856,848,844,843,843,838,838,834,833,834,832,826,824,817,820,826,825,827,822,822,819,821,819,819,815,803,800,793,789,790,797,811,840,878,918,958,997,1035,1075,1113,1143,1161,1173,1176,1178,1171,1155,1136,1107,1064,1008,953,896,857,839,837,847,857,864,860,852,838,831,825,820,818,816,813,816,816,815,817,814,813,817,819,819,821,818,820,823,822,821,818,814,816,820,822,825,826,823,827,827,821,816,815,814,817,821,823,822,825,825,830,831,832,827,826,828,829,831,834,833,834,834,835,842,841,838,834,835,835,839,844,843,839,841,843,846,849,844,840,840,841,844,846,844,844,846,846,848,851,849,847,841,842,845,847,849,843,843,842,844,843,839,838,838,839,844,843,843,842,844,847,848,847,841,840,838,840,842,839,840,837,841,844,842,844,835,829,830,829,829,829,831,830,835,833,835,829,825,821,821,824,828,829,827,828,831,833,835,831,827,827,832,836,838,837,836,836,840,842,848,847,845,845,846,845,849,849,854,859,867,872,875,874,877,878,884,885,887,886,885,890,894,893,890,884,878,876,873,876,875,870,866,863,866,862,856,850,844,838,839,839,839,842,838,836,842,844,846,845,842,841,840,838,838,841,838,835,831,825,818,808,798,796,807,831,864,905,948,987,1022,1052,1086,1119
