745,747,745,749,752,749,750,746,748,748,748,743,743,743,745,747,747,749,747,748,746,745,743,744,742,744,748,748,752,750,748,751,754,754,762,764,766,771,770,771,770,770,770,767,767,770,771,773,777,783,789,791,791,792,785,780,781,772,772,768,766,775,775,778,779,768,763,757,751,749,744,742,740,742,744,744,752,751,754,752,752,747,745,747,748,751,756,763,772,795,830,879,945,1026,1114,1208,1294,1378,1441,1483,1498,1488,1437,1341,1213,1085,957,829,701,663,707,761,802,820,819,803,786,770,761,755,753,754,754,757,761,761,759,759,762,764,766,767,770,768,769,770,773,773,774,773,771,770,771,777,778,785,788,794,796,793,794,794,793,794,797,797,803,807,810,816,820,826,831,833,837,839,843,846,851,858,863,872,877,883,889,890,893,899,901,905,906,911,911,917,921,914,917,915,916,915,912,911,909,908,906,902,895,887,879,868,858,847,842,834,831,827,823,823,818,812,808,800,794,789,788,787,787,787,784,786,787,785,783,780,779,781,779,780,781,780,780,782,787,786,788,788,787,785,785,784,781,786,793,795,799,800,799,797,796,789,793,789,791,792,796,796,797,798,798,796,794,791,793,791,788,790,791,793,795,798,797,794,790,788,783,783,784,785,786,788,788,789,787,784,780,778,780,778,780,781,785,786,790,792,788,782,779,776,774,777,778,778,778,781,783,784,784,782,782,780,779,780,775,776,777,780,783,785,788,789,793,792,795,795,796,799,799,805,808,806,808,806,806,811,812,817,817,820,821,822,821,821,818,817,816,811,805,802,800,796,796,795,792,789,787,781,775,775,772,773,775,776,773,773,775,777,777,778,779,777,777,775,779,778,790,813,851,900,973,1061,1158,1263,1365,1451,1506,1529,1517,1461,1348,1220,1092,964,836,708,724,783,837,864,870,856,834,815,797,788,788,788,787,785,784,784,789,789,792,792,793,797,798,795,796,794,795,795,800,801,804,810,810,809,809,807,808,808,811,812,816,819,821,824,823,827,827,828,834,839,843,851,855,861,866,869,871,876,881,884,892,896,899,904,909,916,922,929,931,936,937,932,940,938,942,944,948,952,954,951,949,940,934,927,918,910,903,893,889,881,876,868,857,848,842,834,825,819,812,811,806,806,807,807,806,807,802,799,794,788,789,792,794,794,792,790,793,790,788,785,786,789,788,794,799,797,798,797,799,799,798,798,794,793,796,799,800,804,807,809,807,805,804,799,795,796,797,799,799,803,801,802,801,798,796,792,791,788,789,791,793,796,794,792,791,789,787,785,782,783,783,786,787,788,789,790,788,786,786,784,780,778,775,777,780,784,788,790,788,787,784,782,783,778,778,779,779,778,785,787,788,788,791,794,797,798,799,805,805,807,807,809,808,802,802,805,805,809,815,822,828,830,828,828,822,817,812,807,806,804,805,805,806,802,801,797,793,787,780,772,767,766,768,769,772,776,777,779,779,779,777,775,776,776,773,771,772,774,781,795,815,853,911,992,1090,1203,1318,1425,1500,1537,1539,1495,1400,1272,1144,1016,888,760,670,727,796,846,867,860,835,809,787,775,772,774,777,782,784,789,787,788,784,786,786,784,785,787,790,793,792,794,794,794,791,792,793,797,798,801,801,804,807,812,817,821,822,822,819,818,818,821,825,829,835,840,850,856,862,863,864,867,868,871,877,883,893,901,907,914,924,925,930,929,933,935,935,940,945,950,948,948,945,943,940,932,925,921,919,916,908,898,889,880,865,853,841,834,827,820,813,812,811,811,811,808,804,798,792,789,787,786,784,785,783,786,786,786,787,786,787,785,787,786,786,788,787,792,793,794,795,791,789,790,787,788,790,791,792,797,799,800,800,797,796,795,795,796,796,794,795,795,794,794,795,793,790,791,791,788,783,784,784,792,792,792,790,786,781,781,780,782,782,782,787,787,787,787,783,782,782,777,777,773,774,776,777,777,780,780,782,780,779,777,775,773,773,775,779,779,783,780,780,777,776,776,776,776,774,778,783,788,794,798,803,803,802,800,802,798,795,801,802,805,810,812,811,810,812,813,817,817,817,816,815,819,819,816,814,812,809,805,803,799,794,792,786,783,780,777,772,773,768,771,773,772,773,773,771,772,774,775,776,775,773,772,773,774,777,788,806,838,883,949,1023,1112,1202,1294,1378,1448,1496,1518,1520,1503,1462,1376,1248,1120,992,864,736,687,739,797,842,858,854,834,810,790,779,775,775,779,779,781,782,783,785,784,779,782,781,782,781,782,780,782,785,789,795,795,796,797,797,794,795,796,794,794,802,803,810,811,811,812,810,809,813,816,822,825,830,836,835,844,846,851,852,857,864,873,879,886,887,895,904,911,916,918,922,928,930,933,935,937,940,943,947,947,945,943,937,934,930,917,907,899,895,887,878,870,860,849,839,831,822,812,808,804,802,801,802,800,795,792,788,785,782,780,781,784,786,786,787,789,785,782,781,779,781,784,784,787,784,794,798,803,800,801,801,795,794,790,791,793,791,796,798,799,797,799,798,793,791,789,789,791,797,800,802,798,800,795,791,787,784,783,783,783,788,789,792,792,791,789,787,786,783,779,778,775,774,776,783,787,789,785,786,781,779,776,776,778,781,781,783,781,780,781,780,777,775,778,777,779,783,784,785,787,791,794,796,796,797,794,795,797,799,802,803,808,811,808,807,809,811,812,810,810,810,810,815,810,810,807,806,804,804,799,793,790,786,781,778,776,775,770,770,768,767,767,767,768,771,772,776,776,776,776,773,772,768,764,766,771,784,806,844,902,977,1066,1166,1268,1367,1447,1499,1525,1523,1493,1428,1316,1188,1060,932,804,676,687,746,803,842,853,846,824,803,785,776,768,767,768,768,772,776,777,778,777,776,776,777,775,776,778,777,778,783,785,788,791,791,793,790,792,791,792,791,793,797,801,804,808,812,812,815,816,817,819,817,822,827,836,843,846,850,852,857,859,865,869,875,882,893,899,907,911,912,914,915,919,923,925,929,932,940,939,940,937,936,933,925,920,911,903,895,886,880,871,864,855,845,838,827,818,812,804,795,791,790,786,787,788,785,786,779,779,777,775,775,770,775,773,776,779,772,773,772,768,767,769,772,772,775,779,781,783,783,784,782,783,782,780,776,775,775,779,782,781,781,780,780,778,773,772,771,777,777,776,778,780,780,779,776,775,772,768,769,771,771,777,779,777,776,769,769,766,766,766,769,770,775,771,771,774,772,771,769,767,766,764,762,761,762,763,767,768,771,769,770,768,765,764,766,766,767,774,778,781,782,784,789,790,788,786,782,783,788,791,797,798,802,802,801,799,799,798,799,798,801,798,797,794,796,796,794,791,789,782,775,771,766,764,761,761,762,759,760,761,760,761,762,762,766,767,768,770,766,765,762,766,771,780,797,831,877,944,1026,1125,1230,1334,1423,1483,1507,1490,1420,1292,1164,1036,908,780,652,675,736,792,827,835,825,807,791,779,775,774,780,782,780,775,771,767,767,771,776,779,784,784,784,789,788,787,788,789,787,788,794,797,800,803,803,804,805,805,807,811,815,819,825,829,831,834,834,837,839,836,841,847,851,856,864,873,878,886,889,890,892,894,895,898,907,911,919,924,929,935,934,940,940,941,939,937,940,941,941,940,937,934,930,925,915,906,896,884,875,865,859,851,850,845,837,830,823,816,812,809,805,803,807,809,813,811,808,803,798,798,792,793,795,796,798,801,805,808,809,809,806,802,801,802,803,805,805,808,807,811,810,812,812,809,810,810,811,811,813,812,813,820,818,818,822,819,820,817,813,811,811,814,814,816,819,818,814,813,809,806,802,804,807,810,809,812,814,812,808,806,803,805,805,805,807,809,812,810,809,808,806,804,806,807,805,807,807,808,810,817,813,810,806,807,803,799,799,802,804,809,810,813,812,808,810,807,815,819,824,828,830,832,837,837,837,839,837,837,833,835,835,840,846,852,858,858,854,851,845,840,839,840,838,838,837,835,833,829,824,821,814,805,803,799,798,799,802,806,809,812,814,809,808,806,805,806,799,801,805,809,821,838,868,914,980,1056,1148,1241,1342,1432,1505,1541,1550,1520,1448,1323,1195,1067,939,811,716,752,816,871,899,905,888,863,841,823,815,814,810,817,818,822,820,820,821,818,821,823,824,826,820,822,823,823,826,829,830,834,833,834,832,833,833,835,840,843,848,850,850,855,855,856,856,861,862,870,873,879,888,896,902,907,909,912,914,918,926,930,934,942,944,956,961,962,968,973,973,977,981,984,987,989,993,995,990,986,981,975,968,963,956,950,942,938,927,919,908,898,888,874,865,855,854,851,853,853,850,846,843,839,836,832,829,829,828,826,825,829,831,830,830,832,829,828,826,825,821,822,827,827,830,833,833,834,833,834,833,835,835,837,838,839,841,840,839,834,836,836,835,835,835,836,838,839,843,841,841,833,832,834,828,831,826,825,825,826,829,829,832,828,834,829,824,826,819,819,819,823,824,828,830,829,825,825,819,817,818,817,816,818,820,822,822,820,817,815,815,812,814,813,817,820,823,824,822,818,820,825,829,834,835,837,840,841,838,840,841,842,840,844,845,850,851,854,855,854,855,856,856,850,847,843,842,839,837,835,835,828,825,825,818,814,806,808,802,803,805,805,812,815,815,816,817,815,812,810,805,805,803,805,815,829,855,898,953,1021,1102,1190,1286,1382,1461,1522,1551,1548,1511,1429,1301,1173,1045,917,789,747,795,851,887,898,893,876,852,830,819,809,806,807,809,813,817,818,816,818,818,819,815,813,813,814,813,815,819,818,823,828,829,829,827,826,829,828,828,833,834,834,832,832,833,837,845,849,854,855,856,853,858,865,872,881,889,891,895,899,905,908,914,925,936,943,947,951,954,958,964,967,971,972,973,975,977,975,972,971,967,962,955,947,935,922,910,897,887,880,873,866,864,859,848,841,834,827,819,814,812,809,807,809,804,803,801,801,794,793,797,796,792,791,793,793,795,791,791,794,793,790,790,791,792,796,799,803,805,805,808,805,801,799,793,793,797,800,802,804,807,806,803,798,795,792,797,795,797,798,797,801,801,798,796,793,791,789,786,788,788,787,787,794,791,790,789,786,780,780,777,778,782,786,786,788,789,786,780,778,776,777,773,776,778,779,778,782,780,781,780,781,776,780,781,778,778,779,782,785,791,793,795,792,793,795,792,791,794,795,795,800,807,810,808,806,807,808,811,808,809,812,810,810,806,803,802,801,798,798,796,790,786,781,778,776,775,773,768,764,760,764,761,763,765,767,769,770,770,772,770,768,763,766,768,773,788,813,847,891,948,1013,1079,1151,1225,1305,1384,1448,1494,1510,1484,1410,1282,1154,1026,898,770,675,715,770,816,839,841,826,807,790,779,772,769,769,767,763,768,769,770,772,774,776,777,774,774,772,772,773,779,785,786,790,791,789,787,784,781,782,782,784,786,792,798,801,803,809,809,809,809,808,809,812,818,824,827,830,835,835,838,841,841,852,856,863,870,878,887,896,902,903,907,909,913,914,916,917,922,923,928,931,932,934,932,928,922,916,907,900,889,879,867,860,851,843,838,831,823,811,806,797,792,791,791,786,780,777,773,769,765,760,763,764,765,767,770,772,771,770,767,765,761,757,757,758,758,758,759,768,773,774,775,771,769,768,765,766,766,771,770,776,775,775,773,769,772,766,768,767,770,771,776,775,775,772,771,770,768,770,765,768,767,771,772,772,772,772,768,762,755,760,755,758,759,760,760,767,765,766,768,765,764,764,762,759,759,760,761,764,765,767,766,764,765,766,764,762,764,764,764,767,767,769,769,769,768,770,772,773,775,780,785,789,792,790,790,786,784,785,785,791,792,800,807,813,810,808,803,798,798,792,790,788,786,787,784,781,777,771,765,762,762,761,761,759,758,761,763,764,762,764,761,762,761,762,759,760,764,771,784,805,837,883,943,1012,1095,1183,1275,1364,1440,1490,1506,1487,1429,1307,1179,1051,923,795,674,710,763,816,843,847,831,813,793,777,769,772,768,768,768,766,769,768,770,773,773,772,773,776,773,773,775,781,785,788,788,791,789,786,784,784,783,785,789,793,800,805,803,811,813,812,810,814,813,817,821,828,833,839,845,850,854,854,858,864,867,872,876,882,891,897,905,910,910,911,918,923,928,932,937,940,944,948,950,948,945,939,934,928,921,913,903,894,885,878,869,861,850,838,827,817,806,797,790,791,789,792,791,791,786,785,778,777,774,773,770,772,774,775,772,773,771,773,770,773,774,774,774,777,776,782,783,782,783,782,780,779,778,780,785,788,789,787,791,790,789,786,786,786,784,783,782,785,782,786,783,788,786,788,785,783,778,775,775,778,778,781,778,779,778,779,777,775,774,772,772,775,776,777,777,777,773,772,768,768,768,769,768,767,770,768,770,770,769,769,770,766,764,761,760,764,765,768,766,768,769,766,770,775,779,783,782,785,786,787,788,788,786,783,783,784,783,785,791,798,802,804,801,798,793,789,787,784,783,779,780,779,773,769,767,761,756,752,748,746,745,745,747,751,754,755,755,755,753,750,745,743,744,748,757,782,812,861,932,1013,1101,1197,1289,1369,1440,1487,1505,1498,1455,1363,1235,1107,979,851,723,687,736,787,818,827,816,796,775,760,753,752,751,752,756,755,755,753,754,754,757,757,758,753,754,754,753,757,758,763,765,766,767,769,770,767,769,770,772,773,774,778,784,787,791,794,795,793,795,799,800,800,804,810,812,820,831,836,843,847,854,856,863,867,870,876,885,890,897,902,902,907,911,915,915,913,914,916,913,911,906,904,897,886,876,865,854,841,831,823,813,810,805,798,788,781,770,761,754,750,748,747,748,750,751,748,746,741,740,738,736,737,735,740,737,739,740,738,738,739,736,735,735,737,740,741,742,745,747,748,745,743,742,739,741,740,741,747,747,750,753,751,752,754,750,747,743,743,743,747,748,749,747,748,747,742,743,743,741,743,743,745,745,746,748,745,743,738,736,735,737,736,735,732,730,730,734,735,738,740,738,737,737,735,734,733,734,737,738,737,736,734,735,736,735,737,738,737,740,741,744,746,747,748,751,753,754,756,751,756,757,758,761,764,763,767,770,770,774,772,773,775,775,778,779,779,777,773,770,764,761,764,764,764,762,759,756,750,745,738,734,731,732,734,739,742,747,748,748,748,749,749,747,742,741,741,739,742,740,749,763,784,819,861,917,980,1053,1138,1223,1314,1394,1456,1490,1488,1445,1346,1218,1090,962,834,706,661,713,771,811,827,822,800,777,761,750,748,750,756,758,761,766,760,760,759,757,758,759,757,758,762,764,765,771,772,773,770,769,768,770,773,774,776,776,785,789,792,794,794,797,797,799,801,808,811,814,821,826,830,829,833,842,845,850,856,861,867,877,885,897,903,906,910,914,915,919,921,924,932,937,944,948,949,947,944,939,935,933,928,923,915,908,902,894,883,871,861,847,841,832,819,814,808,805,801,796,791,793,791,785,784,781,782,783,781,780,784,785,786,786,784,783,781,782,780,780,785,784,787,789,789,790,789,789,785,787,784,784,786,789,797,800,800,801,800,800,798,798,797,798,799,798,801,799,800,800,798,795,796,794,791,791,794,794,797,799,799,796,795,792,789,788,785,788,789,791,794,796,794,794,791,788,786,787,785,785,787,783,789,789,791,791,787,787,785,787,787,785,787,788,790,789,788,790,787,786,785,788,788,792,797,803,812,817,822,822,818,811,807,803,803,806,810,814,818,824,830,830,829,832,829,830,827,824,822,822,821,822,824,824,819,815,808,802,795,792,787,786,787,787,788,787,787,787,784,784,781,779,785,787,785,788,789,791,790,787,793,801,819,847,892,954,1033,1124,1221,1322,1414,1481,1523,1536,1522,1470,1372,1244,1116,988,860,732,731,778,829,858,864,850,827,808,794,788,787,789,791,790,791,788,785,789,792,792,795,798,799,796,798,795,797,800,801,799,804,805,807,809,809,809,807,809,812,817,817,823,826,829,835,838,838,836,835,841,842,842,847,852,858,864,874,883,889,897,902,901,899,905,911,916,926,931,940,945,951,955,956,957,957,957,958,956,959,958,952,950,946,940,931,918,908,899,886,876,867,855,845,837,828,821,813,809,805,799,792,790,790,790,792,791,796,790,789,783,781,780,780,779,783,782,781,784,785,785,784,785,783,783,781,783,784,787,788,791,790,789,785,783,782,786,785,787,787,791,792,796,795,792,789,787,786
