784,785,784,784,786,787,787,788,786,783,782,779,777,776,775,775,777,778,781,782,782,781,780,776,773,773,769,773,773,774,776,777,776,774,770,770,772,771,770,776,778,778,779,776,776,776,777,780,783,784,784,788,790,793,799,797,799,798,797,796,799,799,802,803,804,805,807,805,805,800,797,796,791,786,787,787,786,783,778,772,767,764,758,761,760,763,764,762,764,763,764,766,770,771,770,766,766,766,770,780,794,824,868,922,984,1061,1141,1223,1307,1382,1443,1482,1494,1475,1422,1318,1190,1062,934,806,678,668,717,771,813,832,830,812,793,775,764,759,760,761,764,766,769,769,772,772,770,770,768,767,768,769,769,769,771,773,775,778,781,785,789,789,789,787,786,785,787,792,795,798,799,799,802,807,807,808,808,814,819,821,828,837,840,841,843,848,852,855,865,871,881,888,893,901,899,904,908,912,916,922,926,931,934,938,940,937,936,934,931,927,922,908,904,896,889,881,875,868,857,848,838,827,816,808,800,798,795,792,792,790,791,789,788,785,784,781,780,780,779,778,777,777,779,775,771,774,776,776,774,776,780,783,787,787,789,790,789,785,783,783,782,784,786,793,796,796,799,799,798,796,794,794,794,795,797,797,795,797,796,791,789,787,791,794,794,794,796,798,799,799,797,796,794,791,788,787,789,790,791,792,794,797,795,793,796,789,791,784,788,787,790,795,797,800,801,801,798,795,790,788,784,786,789,793,796,798,798,802,799,798,797,799,799,805,810,814,817,818,819,817,817,817,817,819,823,827,833,834,843,842,839,838,833,827,826,825,825,826,824,825,822,820,816,809,803,799,795,787,784,784,787,793,799,800,801,801,799,798,796,796,797,798,798,800,803,809,820,842,874,926,990,1066,1147,1237,1324,1402,1468,1509,1523,1506,1450,1340,1212,1084,956,828,717,751,812,859,885,886,868,845,825,805,797,798,806,810,812,814,814,808,810,809,804,805,806,808,809,816,821,822,821,819,820,819,819,820,822,826,832,836,837,836,835,841,841,844,849,852,852,853,857,862,867,870,875,881,884,891,897,899,906,910,915,922,929,936,943,946,950,951,958,963,969,975,979,982,984,982,983,978,978,973,971,967,960,952,944,937,930,922,913,904,889,876,867,859,853,845,839,835,832,829,828,825,820,815,814,808,808,813,815,814,813,814,810,807,803,802,800,800,798,798,801,804,812,816,813,813,805,803,804,799,801,804,805,809,811,812,811,809,807,805,808,810,809,811,810,811,813,813,811,812,807,804,801,801,799,800,801,801,809,810,808,806,802,800,798,796,797,799,800,801,803,802,799,799,799,801,797,798,795,793,794,796,801,801,803,804,805,801,799,795,794,795,796,797,801,803,806,807,807,804,807,809,809,812,815,819,826,827,828,827,824,821,820,822,827,833,841,846,847,847,843,839,835,833,830,830,826,824,822,821,823,819,814,807,802,800,797,796,793,791,797,796,801,802,803,804,799,798,800,798,800,800,803,799,808,814,820,838,870,916,983,1065,1156,1256,1347,1431,1492,1530,1543,1534,1499,1431,1311,1183,1055,927,799,723,764,823,864,886,884,867,847,829,820,817,816,816,818,821,819,820,820,815,816,816,815,819,823,823,828,830,834,834,831,827,827,825,825,831,832,833,836,844,849,851,851,852,853,852,853,856,860,865,871,877,882,885,888,890,893,899,904,908,915,923,930,938,944,949,954,956,959,964,962,970,979,986,993,999,1002,1000,999,996,993,992,987,986,979,976,968,958,945,930,921,910,897,886,875,869,864,857,851,847,839,838,834,833,830,825,824,819,822,816,817,819,819,817,812,810,809,811,810,810,814,817,820,819,821,819,815,812,806,810,811,812,819,822,826,827,828,826,821,822,821,818,815,816,822,822,824,824,829,828,827,824,824,823,822,821,820,818,820,816,814,816,816,817,815,814,813,815,818,817,819,823,820,818,816,814,807,808,808,812,813,814,815,815,814,812,810,809,808,808,811,809,809,811,811,813,807,810,810,808,806,805,805,805,813,819,824,828,826,831,831,827,825,826,826,826,827,829,834,838,842,842,845,841,843,841,841,841,840,839,838,837,836,834,831,829,824,816,807,801,801,797,798,798,801,800,799,799,800,799,802,801,799,798,794,791,793,793,791,794,794,800,811,834,866,914,977,1050,1125,1209,1291,1369,1438,1489,1514,1517,1489,1419,1309,1181,1053,925,797,715,749,804,848,873,875,860,841,821,811,802,799,799,797,798,797,798,797,798,800,800,799,800,801,801,797,796,798,801,806,809,813,813,814,817,817,816,814,816,816,818,817,824,825,825,828,830,832,832,833,835,842,844,850,855,864,867,873,877,882,884,887,892,894,902,906,915,921,926,936,940,946,950,954,961,963,967,970,970,970,970,967,963,958,954,946,942,936,927,919,909,897,886,873,862,853,841,832,821,815,811,810,810,808,804,800,796,790,787,785,782,782,782,776,776,776,778,780,780,777,775,776,774,772,772,780,779,783,785,785,784,785,784,783,784,785,786,785,789,792,793,793,789,784,782,784,785,785,788,789,791,791,790,789,786,786,782,780,779,778,778,778,778,783,786,783,779,778,775,775,774,774,778,777,776,776,777,773,773,769,771,767,765,769,772,770,769,768,767,763,767,767,763,762,761,761,767,773,782,785,789,791,788,787,783,782,783,779,779,780,785,792,795,801,801,802,800,797,793,788,789,791,790,790,790,788,787,781,777,771,765,759,758,753,754,754,757,757,762,762,761,755,754,751,750,753,753,758,759,760,759,764,770,783,803,837,885,946,1015,1089,1170,1256,1337,1409,1461,1484,1472,1413,1301,1173,1045,917,789,661,685,736,785,819,829,821,802,783,772,763,760,763,766,763,763,761,759,757,758,758,760,764,766,765,767,768,769,767,765,767,769,770,772,777,781,783,784,784,787,784,782,782,785,794,800,802,806,808,809,811,812,814,817,821,827,835,839,848,855,866,872,877,877,880,879,886,890,900,907,915,922,925,926,926,926,925,923,922,918,917,912,905,898,887,879,870,856,847,838,823,816,807,802,794,790,784,777,769,770,767,767,763,766,768,767,768,768,769,766,764,760,758,756,752,753,754,758,762,767,771,774,771,771,765,761,765,767,771,772,772,771,774,775,775,774,772,774,773,775,777,779,781,782,782,779,778,777,774,774,775,773,777,779,779,783,783,781,779,779,775,773,774,772,767,772,768,775,778,775,773,769,769,767,767,768,770,775,777,781,778,781,777,774,769,768,771,772,771,772,773,773,776,776,772,774,772,776,777,780,785,790,793,796,798,800,800,799,798,793,796,795,799,803,808,815,819,821,821,821,815,811,810,809,808,811,809,810,809,803,795,788,784,778,775,772,772,771,777,782,784,785,782,783,783,782,780,780,779,780,780,784,785,792,805,827,864,915,982,1061,1146,1230,1311,1389,1453,1496,1516,1499,1441,1325,1197,1069,941,813,697,736,793,841,863,864,848,829,812,795,793,794,797,798,799,797,792,792,793,792,790,793,796,799,802,807,811,812,812,811,809,808,810,810,817,817,816,820,823,817,819,819,820,822,827,825,832,838,844,848,851,855,858,862,861,868,869,874,879,888,895,905,910,914,917,923,927,928,931,939,943,947,955,961,967,973,971,967,966,969,970,971,973,970,969,962,954,947,939,930,923,912,898,885,877,869,861,857,848,839,830,824,817,814,813,808,810,814,812,814,812,805,805,802,793,794,796,796,799,799,801,803,803,802,800,800,804,803,802,802,802,800,799,804,803,805,804,804,803,802,803,801,804,804,807,811,809,810,809,810,809,809,809,809,810,810,812,812,814,811,809,805,804,800,801,798,799,798,799,807,806,808,808,805,800,799,796,794,797,798,802,802,801,799,799,798,798,797,790,793,790,791,794,797,797,795,795,793,787,787,786,785,786,790,795,800,799,799,799,795,799,803,807,808,806,806,805,813,813,817,818,819,816,817,816,815,819,823,824,829,828,829,825,821,818,812,808,807,809,807,807,803,797,790,783,778,772,768,766,766,771,774,777,779,781,779,773,771,774,770,770,769,772,775,787,810,841,896,960,1029,1107,1190,1270,1354,1429,1482,1510,1503,1447,1331,1203,1075,947,819,691,723,779,823,848,847,831,809,787,773,767,764,763,767,772,774,774,774,774,774,771,769,770,769,771,773,776,781,783,783,787,784,785,783,783,782,784,786,789,791,792,797,804,805,807,807,809,812,813,815,819,820,824,833,837,848,854,857,862,863,868,875,880,889,898,902,913,916,921,921,924,927,927,930,931,933,935,936,935,926,920,912,902,891,875,862,851,847,840,836,829,821,812,802,790,781,775,773,771,771,771,770,767,766,767,764,760,759,756,754,755,756,757,758,760,759,761,760,758,756,756,754,755,757,762,764,764,765,763,760,760,756,756,757,760,761,764,766,763,762,762,763,763,766,763,764,758,761,761,765,765,766,765,763,761,757,755,754,756,760,761,763,763,760,759,754,752,754,752,752,748,752,751,753,754,756,756,755,752,748,750,748,747,751,757,755,757,758,757,756,751,750,746,749,752,755,757,765,771,773,774,772,771,767,765,765,768,772,775,779,779,783,786,786,787,789,786,784,786,784,782,783,785,783,784,777,775,770,765,755,752,752,748,747,748,747,746,742,740,738,738,740,740,744,746,750,751,750,748,746,747,748,756,763,782,810,850,909,979,1065,1160,1257,1350,1423,1467,1469,1418,1301,1173,1045,917,789,661,664,714,766,802,813,808,794,778,765,759,755,756,757,758,757,757,757,755,758,759,764,768,771,771,768,768,764,763,764,767,771,776,780,781,782,783,779,785,786,787,788,791,795,794,799,803,806,805,808,812,815,820,825,826,835,840,846,849,852,856,859,859,865,868,874,884,894,901,910,916,920,922,923,925,923,924,924,926,929,926,925,923,921,913,906,890,880,871,864,848,841,833,827,820,812,804,798,792,785,784,782,783,788,787,788,785,781,778,772,772,770,770,773,776,779,781,781,783,782,783,786,781,776,775,775,776,782,785,788,790,790,789,785,785,783,782,785,784,783,784,785,791,790,790,789,788,785,786,783,781,784,788,788,792,792,789,786,783,782,782,781,782,783,783,782,784,785,784,779,778,776,775,779,777,776,779,783,787,789,785,785,779,776,776,775,776,774,775,778,783,787,787,786,784,780,783,784,788,796,801,804,807,806,806,805,801,799,799,799,803,813,820,821,827,828,827,823,822,818,814,810,809,808,809,809,809,801,799,792,786,780,775,774,771,772,773,774,779,779,778,775,775,775,774,774,778,782,781,780,781,778,781,782,791,809,837,882,937,1006,1085,1169,1258,1348,1431,1488,1514,1505,1451,1346,1218,1090,962,834,706,740,796,844,871,871,851,827,803,792,785,786,790,795,795,796,794,790,789,787,788,791,794,794,800,797,798,796,795,796,799,804,805,806,808,810,812,816,814,815,813,810,814,815,822,827,826,831,837,844,846,844,843,848,850,854,856,860,866,876,884,894,894,898,898,900,905,911,918,926,933,941,946,948,955,960,963,963,962,956,958,960,960,957,955,957,950,941,931,919,912,901,890,880,872,865,858,848,838,829,819,808,802,796,797,796,797,795,797,795,793,787,783,780,778,774,776,776,777,781,782,778,779,777,779,775,775,777,777,778,778,777,778,780,781,782,780,779,779,777,777,779,784,786,789,789,787,785,781,779,775,775,772,775,778,782,781,779,780,775,775,770,769,769,769,768,769,771,771,770,771,769,770,768,767,766,766,768,771,770,771,769,764,761,758,757,757,759,760,766,769,772,772,770,767,764,762,760,761,761,764,768,776,780,784,784,783,781,778,775,775,781,783,785,789,795,797,797,800,799,796,795,794,791,788,783,786,784,789,788,783,780,773,767,757,753,749,748,751,757,760,757,754,757,755,751,750,753,756,758,759,761,760,761,770,776,795,824,876,941,1027,1121,1222,1319,1403,1464,1493,1489,1453,1374,1248,1120,992,864,736,648,678,729,782,817,826,815,795,777,758,754,756,761,769,771,773,772,772,767,763,763,762,768,770,775,778,780,777,780,778,777,780,781,784,786,788,789,791,794,794,792,797,800,804,805,808,811,815,822,825,828,840,843,843,845,848,848,852,858,865,874,882,889,894,897,904,902,910,914,922,925,931,932,937,939,938,933,933,930,927,925,920,917,910,901,892,884,870,862,849,841,833,824,817,812,805,807,805,801,798,795,792,786,780,778,778,778,779,778,784,783,784,783,777,779,780,778,778,786,784,787,789,788,788,788,788,787,787,785,783,788,792,793,797,799,800,797,796,793,789,788,784,786,784,786,793,793,791,793,789,786,787,783,784,789,790,791,789,790,787,786,780,781,779,779,781,779,779,781,781,782,783,781,778,775,776,776,779,778,779,778,781,782,781,778,778,779,777,777,776,777,780,782,785,784,785,783,784,783,784,784,793,799,802,807,808,811,811,808,806,804,805,809,812,817,821,826,828,828,827,822,820,817,815,811,808,808,808,805,802,795,791,786,777,775,775,773,775,778,779,782,786,787,786,788,784,786,782,780,775,775,780,790,803,823,860,913,980,1056,1138,1227,1312,1392,1455,1500,1520,1517,1485,1418,1294,1166,1038,910,782,708,749,803,851,871,867,846,821,807,799,796,798,797,802,799,799,800,801,800,797,795,794,794,791,796,798,805,811,812,815,814,811,807,807,807,804,815,817,821,829,830,832,834,837,837,838,840,842,843,852,857,861,862,865,868,869,873,881,886,890,896,902,912,924,933,939,942,945,945,949,949,949,958,964,969,977,976,979,977,973,970,970,965,959,951,943,936,930,920,909,900,888,879,874,864,859,849,843,834,831,828,824,819,815,814,811,807,807,804,803,803,807,809,807,810,805,802,799,796,796,797,799,805,809,809,807,806,805,803,802,800,799,801,803,809,811,814,814,811,812,807,807,809,804,805,803,801,806,808,809,810,809,808,806,797,791,789,795,797,798,799,801,797,795,793,789,786,786,786,787,788,789,790,790,789,785,780,777,780,779,780,782,781,782,783,779,778,777,776,773,773,775,776,777,775,777,779,780,781,780,781,781,784,786,792,791,796,800,799,798,794,789,788,792,791,796,801,805,807,811,808,807,807,805,804,798,797,790,789,787,789,791,788,784,781,774,768,764,758,757,752,753,753,757,756,757,755,752,754,750,744,742,743,744,746,752,754,761,767,774,786,807,842,896,966,1046,1140,1237,1333,1411,1467,1487,1470,1405,1280,1152,1024,896,768,640,662,717,767,799,808,802,783,765,749,744,742,743,748,748,750,743,740,735,734,735,739,737,739,742,748,752,750,748,746,746,747,749,753,754,757,757,759,761,762,761,766,764,763,767,770,767,773,779,788,792,793,792,794,796,799,806,812,818,824,831,836,839,843,846,851,856,863,869,875,882,886,891,893,893,894,890,887,888,883,877,871,869,865,859,852,846,837,827,816,801,789,777,771,762,758,757,751,745,739,732,729,730,731,732,733,734,733,731,728,725,722,722,723,721,720,720,719,722,726,730,731,729,727,725,725,723,721,726,728,729,732,732,733,733,732,728,727,730,730,728,729,731,734,738,740,741,740,737,733,726,722,724,725,726,733,733,734,731,728,726,721,723,722,723,723,727,728,728,729,727,727,727,726,727,723,724,721,724,730,732,733,733,730,727,725,729,724,723,726,732,735,741,744,745,745,744,744,747,748,751,753,755,761,761,763,765,768,766,768,771,779,788,798,812,811,810,805,799,791,788,786,784,783,787,788,786,784,782,783,778,775,770,765,762,761,761,763,765,767,771,771,773,773,771,768,766,764,764,771,780,792,814,846,890,948,1019,1101,1191,1279,1355,1409,1431,1402,1316,1188,1060,932,804,676,653,698,755,806,832,839,831,817,806,796,789,784,782,783,784,784,784,787,788,787,788,786,785,791,792,794,793,793,793,793,797,802,803,803,802,802,798,799,800,799,805,809,814,819,820,823,825,825,830,830,831,830,837,843,849,854,857,861,865,865,866,871,877,883,889,894,896,907,910,912,911,913,914,914,914,915,918,919,921,916,911,908,896,887,877,870,858,851,841,835,826,817,809,802,797,792,786,777,771,766,766,765,770,772,771,766,761,758,757,752,756,753,754,752,755,757,756,755,753,748,748,748,748,746,750,753,758,761,759,761,757,753,751,749,745,745,748,745,744,747,743,740,737,732,731,729,728,729,731,735,736,741,744,740,737,734,728,727,727,728,732,737,740,739,738,738
