933,933,935,936,934,933,931,928,926,927,926,928,927,928,932,930,932,933,926,927,927,923,919,925,926,927,931,929,929,928,926,925,926,923,925,925,926,924,925,926,927,926,924,926,925,922,922,922,923,926,928,929,926,927,926,925,925,924,923,925,927,927,926,926,926,927,925,924,925,923,926,925,926,924,928,930,929,927,927,927,925,925,925,930,934,938,940,944,945,944,945,945,943,940,939,939,937,938,938,940,938,940,936,936,935,931,930,929,924,926,926,930,930,932,933,935,936,940,948,960,974,998,1031,1078,1137,1205,1272,1318,1339,1325,1266,1158,1030,902,774,709,730,785,838,879,901,905,907,905,909,912,918,922,922,919,916,915,915,912,914,915,919,920,924,925,925,924,923,922,922,920,924,925,927,929,930,931,933,932,932,932,932,930,933,935,937,940,944,944,946,944,942,942,941,942,941,943,948,950,951,953,953,954,952,952,951,949,953,953,955,957,957,958,960,958,956,954,954,952,953,953,954,955,954,955,954,955,954,954,952,954,954,955,955,960,963,966,969,970,972,973,973,971,970,967,969,967,968,965,964,961,957,956,949,949,947,944,944,944,943,942,938,936,935,933,931,928,930,929,928,930,933,934,934,933,931,931,930,928,928,931,934,935,937,938,937,938,937,934,936,937,938,937,941,943,943,947,945,946,944,944,945,943,942,943,946,946,948,948,948,948,946,943,941,940,940,939,940,939,939,940,941,938,938,937,934,933,930,930,931,929,931,930,931,930,927,925,924,925,925,924,926,927,927,928,929,925,924,922,924,922,918,921,924,922,923,925,919,922,921,920,920,918,918,917,918,919,920,920,920,918,918,917,915,915,913,915,917,918,920,921,919,919,917,914,915,915,915,915,915,916,918,918,916,918,916,915,916,914,914,914,916,916,917,918,919,918,914,916,913,912,914,914,912,918,918,919,918,919,916,916,915,914,913,915,917,918,917,921,917,918,918,916,915,913,915,914,916,920,919,919,922,923,922,925,926,931,931,933,933,933,933,933,927,924,923,926,925,924,924,925,922,926,925,927,926,923,918,916,915,916,918,920,924,926,931,933,936,941,947,961,984,1019,1073,1138,1212,1278,1329,1351,1344,1302,1217,1092,964,836,739,724,758,815,863,894,905,903,896,889,889,894,898,906,911,907,909,907,904,903,902,901,900,899,902,900,905,905,906,907,909,910,907,908,908,906,911,911,911,917,918,920,919,922,922,921,917,922,924,923,925,927,929,931,929,931,929,929,929,930,931,933,934,935,938,939,941,943,943,942,941,942,943,946,947,949,949,952,953,951,951,951,950,950,950,953,952,953,955,956,957,957,956,957,957,957,956,959,961,963,968,972,973,975,974,974,977,978,978,977,978,973,970,969,964,961,957,953,952,947,946,941,939,939,936,935,934,931,929,926,924,922,923,923,925,924,925,926,924,927,924,925,923,924,923,924,926,926,929,933,931,931,932,931,929,930,932,931,936,935,936,939,939,939,939,939,937,935,934,935,932,934,937,939,939,936,936,932,931,929,930,929,932,931,931,928,929,926,925,923,922,920,919,920,920,919,920,925,922,920,918,915,918,916,915,913,917,917,919,918,920,920,919,917,916,916,916,915,916,918,917,918,916,917,916,915,913,911,910,914,915,915,918,919,919,917,915,915,911,912,913,910,915,915,916,916,917,915,917,915,914,912,912,912,913,916,914,917,916,916,915,914,913,912,915,915,914,917,919,918,918,917,916,915,917,916,914,917,915,919,919,920,920,922,921,919,915,914,914,915,918,920,921,922,920,921,920,922,921,926,928,932,933,933,935,938,937,934,931,927,925,922,920,921,923,928,930,931,935,933,929,926,921,918,918,918,919,920,923,927,929,932,935,936,944,955,974,1008,1058,1123,1195,1269,1325,1352,1347,1299,1201,1073,945,817,728,729,775,832,878,905,910,906,898,896,898,902,909,915,915,916,913,907,905,904,904,906,907,907,910,911,912,915,917,918,917,916,915,913,914,917,920,921,924,924,925,925,925,926,926,925,928,928,931,932,935,937,937,938,937,938,937,937,939,942,942,945,948,950,948,950,948,947,946,946,952,953,954,957,957,960,960,960,960,959,959,959,959,959,960,962,962,964,963,965,961,961,959,960,963,965,967,970,973,977,977,979,982,980,980,981,981,981,980,979,975,976,971,967,964,961,956,954,950,948,946,944,943,943,943,939,939,936,936,933,935,933,933,933,933,935,937,936,935,934,935,938,936,937,940,940,944,946,946,949,948,947,949,947,945,949,950,951,953,955,955,954,954,951,947,948,947,948,951,952,954,955,954,953,949,948,946,944,943,944,945,945,944,945,945,944,942,938,938,937,935,936,936,938,939,938,935,935,936,932,933,933,934,932,933,934,935,935,933,933,930,932,930,929,931,930,932,932,931,934,934,933,928,929,927,927,925,927,927,932,933,934,933,930,930,927,927,927,928,930,930,932,931,933,931,931,929,929,926,925,926,926,929,932,932,934,933,934,932,928,927,928,928,928,930,929,931,932,931,932,931,931,930,928,927,927,928,928,931,932,932,931,930,930,928,931,932,931,933,930,933,930,930,932,931,931,933,936,939,942,948,948,952,953,949,949,945,944,940,940,940,941,942,942,944,944,945,944,940,937,934,932,933,933,936,940,944,946,951,958,968,987,1018,1062,1126,1197,1269,1319,1345,1331,1269,1154,1026,898,770,715,743,799,856,897,916,920,919,915,914,916,919,922,921,922,922,920,920,921,922,922,924,921,922,924,924,925,925,927,928,929,930,931,932,929,929,928,931,933,936,937,937,940,937,939,937,935,937,938,938,937,940,943,945,946,947,948,948,945,946,947,948,948,951,954,957,959,957,958,954,954,954,954,957,957,959,959,961,962,962,960,959,958,957,956,954,955,958,958,961,962,964,963,962,959,960,960,960,964,966,970,973,975,979,979,976,977,976,976,974,972,971,967,968,967,964,963,958,954,955,950,949,946,945,944,944,944,943,943,940,940,935,934,935,935,935,935,936,939,940,943,942,942,941,942,943,942,943,946,947,949,950,952,952,954,951,952,951,951,954,958,957,959,960,957,958,959,957,954,956,957,957,958,961,964,963,958,960,955,955,953,949,947,948,949,951,952,952,950,952,949,946,944,941,943,943,945,944,941,942,939,939,939,938,937,934,934,934,935,936,937,937,937,936,936,934,932,931,928,931,932,933,934,933,934,931,931,929,928,928,927,928,927,930,931,931,930,931,930,929,928,928,928,926,930,930,932,931,930,930,929,927,924,929,925,926,927,927,930,932,933,932,929,929,928,928,928,928,930,931,933,932,931,931,930,929,930,928,929,927,931,931,935,935,937,934,933,934,932,929,930,930,933,933,937,936,938,938,939,943,945,948,946,946,950,948,947,945,941,939,937,936,938,939,940,942,943,941,942,939,935,933,930,936,937,937,940,944,951,958,971,988,1013,1051,1096,1155,1220,1280,1320,1329,1303,1222,1094,966,838,718,719,766,825,876,907,920,922,921,920,920,922,920,919,918,917,917,918,920,920,923,926,927,927,928,927,929,928,927,927,928,930,933,935,935,936,935,935,935,933,932,933,937,938,941,942,944,944,941,941,941,942,942,942,944,947,949,950,954,950,953,952,953,951,953,953,952,954,956,959,961,960,960,960,956,955,953,957,957,960,961,961,962,960,959,958,956,954,954,955,955,954,954,959,960,960,959,961,960,960,961,963,966,971,975,978,979,977,978,976,971,966,963,964,962,963,961,962,959,956,951,948,945,941,941,939,939,941,939,939,939,937,938,938,936,934,933,933,933,935,937,938,942,939,939,937,937,937,938,941,940,944,948,949,950,950,950,951,951,949,949,951,954,955,956,957,956,958,958,958,955,955,954,955,953,956,955,957,956,954,954,952,949,947,947,945,946,943,946,949,948,946,946,943,943,939,938,938,938,938,938,940,938,939,937,937,933,931,930,931,929,933,934,934,933,931,931,930,928,927,928,925,926,926,929,929,933,932,930,930,927,926,923,924,925,927,929,930,931,929,930,927,924,923,924,926,925,926,927,928,929,929,930,929,925,926,923,924,925,924,927,927,927,927,926,926,925,925,925,923,923,925,927,927,929,927,924,926,925,922,924,925,924,927,928,931,930,931,929,927,927,925,924,926,927,929,931,932,934,931,930,930,929,925,929,930,929,934,939,943,943,947,948,944,940,936,934,932,932,935,937,938,941,942,939,939,935,934,930,927,931,927,929,931,933,937,937,937,940,941,945,955,967,991,1027,1081,1143,1212,1277,1321,1339,1330,1279,1182,1054,926,798,737,747,789,845,885,907,909,908,905,901,907,914,922,926,925,922,916,916,913,911,913,912,916,918,920,922,920,923,919,919,918,915,915,918,923,925,929,930,928,931,930,929,928,928,929,931,933,935,935,937,937,937,937,937,937,939,939,940,943,946,947,948,949,948,949,949,945,946,947,949,954,956,959,961,959,958,958,960,960,958,961,963,963,964,966,967,967,967,967,965,964,962,963,962,965,966,970,971,969,973,972,975,977,980,984,986,989,989,990,991,988,981,978,974,967,964,963,962,961,958,958,955,952,947,945,941,938,938,935,935,933,934,935,935,937,936,936,935,932,933,931,932,933,935,938,937,941,940,937,939,936,937,935,939,942,943,947,947,948,948,947,948,947,946,947,946,949,950,949,950,951,951,950,946,946,943,944,943,945,943,944,945,942,942,941,938,937,936,935,935,935,936,937,937,934,933,932,932,929,929,930,930,932,928,931,932,929,931,929,928,927,926,926,924,925,926,929,928,927,928,927,924,923,923,921,921,923,926,927,928,926,926,923,924,922,923,921,922,924,923,924,925,922,928,923,923,918,920,921,922,920,920,924,924,926,921,922,924,922,918,921,923,925,924,924,925,922,922,922,920,920,921,921,921,924,925,925,928,924,923,925,920,919,918,920,920,923,924,925,927,924,925,925,923,922,921,921,924,924,926,930,933,934,937,940,941,941,939,940,939,939,937,936,933,932,933,932,932,931,931,932,930,933,931,931,929,928,927,927,927,930,929,932,935,944,953,970,1002,1049,1111,1185,1259,1314,1341,1331,1274,1163,1035,907,779,724,748,803,855,889,907,909,906,901,902,909,913,917,917,915,911,908,906,904,908,911,912,914,915,917,916,914,914,910,911,912,914,918,920,922,923,923,925,925,925,924,923,924,926,927,930,931,935,933,935,933,935,934,937,938,940,941,943,942,946,946,948,946,947,947,946,944,947,951,952,956,956,957,955,955,955,951,953,952,954,956,955,957,960,961,959,959,959,959,957,956,959,960,963,967,968,969,972,974,976,974,977,978,978,979,978,978,970,969,967,963,960,956,953,950,946,945,940,942,939,939,935,933,933,932,930,930,930,931,932,936,936,935,934,933,933,937,935,935,934,937,937,942,946,946,948,948,947,944,947,945,947,949,948,949,952,952,951,949,951,949,948,948,947,948,948,950,951,952,951,948,947,944,940,942,941,942,941,941,942,941,939,935,935,935,932,933,931,934,934,935,935,934,934,931,930,927,925,924,926,928,930,932,930,928,926,924,922,921,922,922,924,926,922,924,924,927,928,928,923,924,920,922,925,925,925,929,930,927,928,923,921,921,921,919,920,922,925,926,924,927,925,924,923,922,920,921,922,922,924,926,927,927,926,925,922,920,920,921,921,924,925,927,927,927,925,925,923,922,921,922,922,921,926,927,928,926,924,927,925,924,922,921,924,926,927,934,937,940,943,942,942,941,939,940,940,935,933,931,933,933,931,932,931,932,931,931,930,930,931,931,928,926,926,928,928,926,929,930,937,948,962,986,1023,1069,1129,1197,1261,1308,1323,1305,1248,1138,1010,882,754,703,729,785,837,877,899,904,903,903,902,908,913,917,919,917,915,909,906,909,910,911,915,917,919,920,921,919,919,918,918,917,918,919,923,924,924,927,925,926,925,925,925,926,924,927,929,932,933,934,933,934,934,934,933,935,937,936,936,938,939,941,937,942,943,943,943,942,945,945,946,949,950,949,952,952,950,948,948,948,951,950,950,952,951,949,949,948,948,947,948,949,950,949,948,950,953,948,951,954,951,951,953,954,956,958,962,965,966,971,968,968,968,965,961,961,959,961,959,958,956,951,951,946,945,941,938,936,934,933,932,932,932,933,931,930,928,927,925,926,926,929,929,930,932,933,936,934,933,933,933,935,937,938,940,941,945,945,946,945,944,945,944,943,941,947,948,949,955,951,953,951,951,949,949,950,947,949,950,950,949,948,947,946,944,943,942,942,941,941,942,941,940,943,938,937,936,935,933,932,934,933,934,933,934,933,931,931,928,927,926,924,924,927,926,928,928,928,927,924,925,924,923,924,922,923,924,925,927,925,924,922,920,921,919,918,922,921,921,925,925,924,923,922,919,918,920,918,917,919,922,921,924,924,923,922,922,923,922,924,922,921,922,921,923,925,924,925,923,921,918,917,917,918,919,924,926,924,923,925,922,922,919,920,921,921,922,925,926,924,925,922,920,922,921,920,923,923,921,924,928,931,933,933,935,936,938,939,942,941,942,940,938,934,933,932,931,928,930,931,931,929,933,928,931,928,928,926,925,924,924,926,929,934,938,946,957,968,986,1018,1059,1114,1178,1243,1297,1325,1322,1278,1186,1058,930,802,708,716,764,819,864,892,905,908,908,909,911,914,916,917,914,914,913,914,911,913,914,918,917,919,917,916,917,920,917,920,922,923,926,927,927,926,924,924,924,924,925,927,930,931,932,933,932,931,930,928,931,932,933,936,936,940,941,942,943,942,942,941,940,941,943,945,948,951,951,949,950,950,947,947,946,946,948,948,948,949,950,951,950,950,946,945,944,943,944,945,947,946,950,950,951,952,956,956,954,959,959,962,964,965,966,964,965,961,959,955,953,951,946,946,944,944,943,940,938,934,932,930,927,928,928,927,929,929,929,929,928,927,927,926,925,925,927,927,928,930,930,932,932,935,934,931,930,931,932,935,938,939,942,943,943,942,942,942,943,943,945,947,946,947,949,949,949,947,947,945,943,941,941,939,943,943,946,946,943,942,940,938,936,937,936,936,937,937,937,936,935,933,930,930,928,926,927,927,929,930,930,930,929,928,925,925,922,921,922,922,925,924,924,922,922,922,920,917,918,917,919,919,918,917,920,920,922,921,918,916,914,915,916,917,918,921,920,916,916,916,914,913,915,915,915,916,916,918,918,919,920,918,916,914,913,913,912,913,915,915,918,917,917,914,912,913,911,911,910,912,914,913,916,915,916,915,913,913,911,911,911,913,914,915,918,922,922,925,928,925,925,927,924,927,927,925,926,922,924,923,923,922,923,923,920,923,921,920,917,917,916,915,917,916,918,918,922,925,930,940,953,978,1012,1063,1130,1203,1273,1316,1334,1319,1257,1146,1018,890,762,715,738,791,843,879,895,901,899,898,899,902,904,907,904,903,901,900,897,897,899,901,903,903,905,905,904,903,904,902,902,903,905,911,912,913,915,914,913,912,913,912,913,915,918,920,923,922,921,924,921,921,922,922,923,926,926,928,933,935,932,935,934,934,935,934,934,938,939,943,944,944,944,943,946,945,944,942,943,944,947,948,951,952,950,950,949,948,947,946,948,949,952,954,957,959,961,960,960,961,962,963,966,969,971,972,970,970,967,964,957,955,950,948,945,945,944,941,941,936,933,930,927,924,922,922,922,920,921,920,921,921,919,920,920,919,919,918,920,921,922,924,925,926,925,924,924,923,923,924,925,924,929,928,930,933,934,933,933,933,932,930,931,931,931,931,934,936,935,935,934,933,929,929,930,929,931,930,932,930,931,929,925,924,924,921,918,920,920,919,920,922,922,920,918,917,914,915,913,915,916,917,918,918,918,916,913,913,911,912,911,910,911,912,915,912,912,911,910,910,910,908,906,908,910,911,912,913,911,911,909,911,906,907,906,907,911,912,912,912,911,910,910,908,906,905,905,906,906,907,909,909,909,909,908,907,907,907,908,909,910,911,912,912,911,910,908,907,908,909,907,909,910,911,912,912,913,913,910,910,907,909,908,912,913,914,918,922,923,924,925,925,925,923,924,923,922,922,920,917,918,918,918,916,916,914,915,914,916,914,913,912,913,913,912,912,912,913,916,921,926,933,942,961,996,1045,1113,1192,1266,1317,1331,1301,1217,1089,961,833,729,725,767,820,862,890
