811,816,819,824,824,823,825,824,822,822,821,824,826,828,832,837,839,839,842,838,834,832,833,832,835,839,837,834,831,828,820,815,813,807,803,802,802,804,799,794,794,792,793,791,792,792,795,796,799,801,805,805,803,798,793,794,788,796,810,836,875,933,1002,1090,1181,1274,1363,1438,1491,1524,1535,1530,1500,1442,1331,1203,1075,947,819,715,737,782,836,866,873,866,845,825,809,800,793,798,799,800,796,797,798,798,796,797,797,797,797,798,801,801,805,809,812,809,813,811,810,807,808,810,807,808,814,816,818,820,824,827,827,828,829,830,831,831,833,836,844,848,853,857,860,862,864,868,869,870,877,883,890,899,904,908,914,917,922,923,927,930,937,942,945,949,951,952,953,954,955,953,951,946,944,940,934,929,919,915,903,893,885,878,866,856,846,839,829,828,824,818,815,810,804,801,797,794,796,797,801,799,800,799,799,796,789,787,784,782,784,788,793,798,799,797,798,794,793,792,793,791,794,799,798,799,797,796,796,795,793,796,797,795,799,800,801,803,800,797,796,796,793,792,790,793,792,791,792,793,790,790,790,789,787,789,789,786,782,781,782,785,789,788,790,788,787,783,781,780,779,782,783,785,785,788,784,784,782,777,779,774,773,774,778,780,784,786,787,781,781,778,779,783,788,795,801,806,810,807,802,800,799,802,802,801,803,810,813,821,823,827,827,824,818,818,814,813,812,815,816,818,820,816,811,805,798,791,784,782,782,785,784,790,792,791,793,792,788,788,787,787,788,790,791,796,796,801,811,832,875,931,1007,1091,1185,1281,1372,1443,1497,1528,1533,1519,1478,1397,1270,1142,1014,886,758,705,752,809,855,872,868,851,829,806,799,801,800,805,808,807,810,806,805,803,802,800,803,805,806,811,814,815,814,815,818,817,818,817,819,821,821,823,826,830,830,830,834,836,838,841,844,845,850,857,861,860,866,867,869,874,874,882,891,897,901,908,914,921,931,938,943,943,947,944,949,951,953,960,962,964,964,965,963,958,954,948,946,938,932,925,919,908,897,888,878,871,863,855,851,848,841,838,833,823,820,814,812,810,808,807,806,803,801,802,803,806,804,799,802,800,801,804,805,807,810,813,812,814,812,810,808,808,810,812,810,814,819,820,821,820,816,816,815,814,812,810,811,812,813,819,821,822,825,823,814,812,807,805,806,807,810,809,811,808,805,804,803,802,803,804,805,804,804,805,805,804,805,802,801,800,796,794,795,798,800,804,804,807,809,804,806,803,798,797,796,793,796,796,798,801,800,801,798,795,796,797,794,796,799,801,803,807,806,809,813,817,817,816,818,818,822,821,825,823,823,824,823,826,829,830,836,836,833,836,832,830,827,824,821,822,820,817,812,810,808,805,802,798,794,790,787,787,785,785,786,789,789,795,793,795,792,788,785,782,781,789,801,823,862,919,990,1084,1191,1300,1400,1478,1521,1526,1496,1416,1288,1160,1032,904,776,683,726,786,841,871,870,857,834,816,802,801,799,799,797,798,796,797,797,796,802,805,806,805,804,805,807,806,809,806,808,809,813,814,816,814,813,813,815,816,819,825,829,827,834,840,850,853,854,850,854,854,857,860,867,874,877,883,890,896,904,910,912,924,930,934,938,941,942,944,946,950,952,950,951,947,954,953,952,950,947,943,931,921,911,899,893,884,875,869,858,854,849,846,842,837,830,822,815,810,806,804,801,803,806,805,803,801,801,798,796,798,800,803,801,802,800,802,803,804,807,805,805,803,807,807,808,810,813,817,818,820,818,812,813,810,809,808,807,812,812,814,815,815,816,813,810,808,807,801,803,805,804,805,808,803,804,801,799,797,794,796,795,799,799,799,795,797,792,788,785,782,779,784,786,791,793,795,794,790,790,789,788,784,785,785,783,785,786,788,788,788,788,789,785,783,783,783,785,788,790,790,790,791,791,796,801,804,808,807,806,805,804,806,806,807,809,810,812,813,813,815,817,820,821,826,826,827,822,817,813,811,808,806,806,807,802,798,795,793,792,788,784,780,774,771,773,772,776,782,783,784,785,778,773,772,775,775,774,773,779,782,793,810,834,878,937,1014,1104,1201,1302,1394,1462,1500,1511,1488,1422,1301,1173,1045,917,789,694,730,787,835,865,865,849,824,800,784,778,775,777,780,781,782,783,780,783,781,782,782,782,786,790,791,791,791,793,796,793,794,794,791,789,792,796,802,805,808,814,812,814,816,817,822,820,821,823,821,827,833,843,848,851,858,862,866,868,868,874,880,888,892,901,907,913,916,921,924,928,929,932,937,942,942,944,939,938,933,926,921,912,907,903,896,884,882,873,860,849,837,824,816,810,805,802,798,795,788,794,789,789,787,781,779,776,772,772,773,771,775,775,774,774,773,774,775,775,772,774,773,775,776,779,779,779,776,774,776,777,777,780,782,783,781,781,780,782,780,780,776,775,775,771,775,775,775,777,775,773,769,770,769,766,769,765,769,766,768,769,767,766,766,761,760,759,756,757,759,764,765,766,766,765,761,758,756,753,752,754,756,759,760,765,762,762,762,758,754,751,749,748,752,757,758,762,762,760,762,760,764,767,771,774,776,777,779,782,778,779,781,778,779,780,783,784,784,791,792,797,795,793,790,785,779,778,780,780,780,782,780,776,772,766,760,754,751,750,748,752,753,758,760,758,760,759,761,761,756,754,755,753,754,759,768,784,810,858,921,1002,1096,1193,1297,1389,1456,1496,1512,1483,1407,1279,1151,1023,895,767,655,697,755,800,826,828,817,795,779,767,763,763,762,764,768,770,770,772,770,773,772,773,771,770,772,775,777,782,783,786,783,788,789,788,787,788,788,789,793,794,801,805,806,809,810,811,815,818,823,824,829,833,835,840,843,844,845,847,853,861,868,874,879,886,894,904,908,910,911,913,915,916,918,922,923,930,933,935,935,929,921,918,911,904,897,887,882,875,869,864,849,847,838,828,820,808,803,799,798,800,799,800,798,795,793,788,783,782,778,782,783,783,785,789,789,790,789,785,785,781,785,788,792,795,796,799,798,797,796,793,794,794,794,794,794,794,799,801,798,798,796,793,792,792,792,794,796,798,797,799,798,794,790,787,786,784,783,781,782,786,787,791,788,787,787,784,782,783,780,779,778,783,782,781,779,782,780,777,776,777,778,776,778,781,785,784,779,780,774,776,771,770,770,771,776,780,782,785,786,781,781,777,778,783,784,786,793,798,801,801,798,797,796,794,795,801,803,805,810,812,814,820,818,816,812,804,804,803,803,806,806,806,804,806,801,798,788,783,777,776,772,766,765,769,770,771,769,771,771,771,770,772,769,770,771,772,771,772,771,774,779,789,807,841,886,950,1028,1116,1212,1311,1404,1473,1513,1511,1471,1369,1241,1113,985,857,729,703,761,818,852,853,839,815,791,777,771,772,778,785,786,785,782,778,778,775,774,777,781,783,785,787,787,788,789,791,792,792,795,794,797,795,797,801,802,806,809,808,806,808,812,815,818,821,826,828,830,836,838,840,844,847,851,857,862,870,874,880,883,890,895,898,902,906,912,916,922,927,934,936,938,942,939,937,936,934,933,931,933,933,931,927,920,908,898,887,875,865,855,846,840,836,829,828,822,816,813,807,800,799,796,790,788,786,782,788,785,788,787,783,779,776,777,778,782,786,786,788,785,781,784,783,781,780,780,780,779,786,792,795,796,791,791,791,787,789,790,790,795,795,799,801,800,800,799,796,794,791,790,787,788,792,793,796,792,792,790,786,788,789,789,786,787,788,786,789,786,784,784,780,779,776,775,777,781,784,786,787,782,782,782,779,779,779,775,775,773,771,774,776,777,779,782,778,777,775,775,776,778,779,777,781,782,782,783,783,784,787,789,793,797,801,804,807,805,805,803,798,798,795,796,800,809,820,821,823,816,812,808,803,802,805,802,803,804,800,799,799,795,790,787,784,781,776,772,769,767,774,777,777,777,775,776,774,775,775,771,771,771,772,778,788,799,822,865,925,1000,1094,1204,1312,1407,1476,1514,1522,1499,1437,1326,1198,1070,942,814,686,687,750,810,854,867,856,834,807,783,771,768,769,771,779,782,786,791,787,788,787,786,784,783,780,780,785,788,794,798,796,796,797,799,800,798,800,799,803,807,813,817,817,822,820,821,819,817,821,832,838,844,853,853,857,860,858,859,860,867,871,880,890,896,908,913,916,921,921,927,929,932,934,936,938,940,943,944,942,940,937,935,932,923,916,906,897,884,875,866,857,846,835,823,815,809,803,799,804,804,803,802,797,791,787,781,779,776,776,779,783,780,784,783,780,779,780,778,780,778,779,780,784,787,793,787,786,785,787,783,783,781,781,782,785,790,791,792,792,791,784,783,786,784,785,785,783,782,786,783,784,784,782,779,779,778,775,773,773,776,780,778,778,776,772,772,773,771,773,771,768,766,767,768,770,774,770,772,768,765,765,767,769,771,770,771,770,770,766,765,764,764,765,767,771,773,776,778,782,785,786,782,781,776,775,778,781,785,791,794,797,799,798,796,799,798,799,797,795,792,793,793,793,790,791,792,787,782,777,776,773,766,764,762,758,756,755,755,757,758,761,761,762,763,765,765,763,762,760,758,754,760,769,789,818,860,920,991,1073,1156,1242,1330,1407,1463,1492,1498,1467,1386,1258,1130,1002,874,746,666,704,756,798,820,823,813,805,788,777,770,766,766,765,766,765,764,767,770,772,777,779,779,774,776,775,773,776,778,780,783,789,788,791,791,791,793,795,797,796,796,798,803,807,814,821,825,827,826,825,826,830,834,838,844,852,858,859,868,870,875,881,890,894,899,903,909,912,918,920,924,922,924,925,926,929,928,930,930,922,920,914,906,900,891,882,872,862,858,852,849,843,838,828,818,810,803,801,794,791,793,795,795,795,796,794,794,794,792,793,791,792,791,793,790,793,793,791,792,790,793,791,792,794,795,798,803,806,809,809,808,804,795,794,794,797,799,802,802,802,802,806,804,800,798,796,793,791,791,791,797,801,804,804,802,798,796,795,794,793,792,794,794,795,796,794,794,792,788,786,785,782,786,786,793,795,796,795,792,789,790,786,783,781,783,786,790,795,797,797,797,794,788,786,781,781,785,791,791,795,796,799,799,802,805,807,808,809,810,811,813,816,819,820,822,822,821,816,820,822,824,825,826,824,828,825,820,819,816,814,811,808,803,803,802,800,796,795,790,787,785,784,783,784,781,785,785,787,791,790,785,786,785,784,783,781,783,788,796,817,845,888,945,1016,1095,1181,1275,1365,1446,1504,1534,1545,1532,1489,1403,1275,1147,1019,891,763,722,761,814,854,871,864,851,829,810,797,793,791,793,797,800,803,803,804,801,800,798,799,798,799,800,803,808,808,814,814,812,811,810,810,812,810,811,813,812,817,817,822,828,828,829,831,833,836,842,846,849,851,854,856,858,857,861,864,869,869,877,887,893,899,911,916,923,927,928,931,935,934,940,942,944,950,956,961,962,961,960,956,951,950,946,944,941,935,926,916,905,896,887,879,869,861,852,847,844,837,831,827,823,819,812,811,809,806,805,804,803,804,807,805,804,802,804,800,800,800,799,800,805,805,805,802,804,804,803,801,802,801,802,805,809,812,815,818,815,813,809,807,806,804,807,809,814,816,815,819,816,814,811,806,807,805,808,809,806,805,802,804,801,799,800,801,800,803,799,796,797,799,804,803,799,802,796,795,796,792,792,797,797,801,802,799,799,795,794,790,788,786,787,789,789,791,793,795,794,793,787,786,786,789,790,796,800,804,806,810,815,817,816,812,811,810,808,808,811,814,822,828,830,833,827,824,824,823,823,825,824,821,825,819,813,811,805,802,799,793,790,790,787,786,784,785,787,786,784,782,781,779,781,782,784,787,791,791,788,790,791,791,802,821,854,909,977,1067,1162,1267,1367,1450,1507,1538,1536,1509,1450,1345,1217,1089,961,833,705,701,755,813,852,865,857,839,816,803,799,795,796,793,793,794,792,790,789,790,790,793,793,794,798,799,800,800,799,801,799,803,804,809,812,808,816,814,814,811,811,813,811,818,824,830,835,838,836,839,838,837,839,839,842,853,857,865,875,882,884,885,889,891,895,904,909,918,924,932,941,944,950,953,954,954,954,953,954,956,958,957,954,949,940,931,924,916,906,895,888,877,870,865,859,852,844,838,832,825,820,817,812,809,804,802,805,804,805,802,798,795,794,794,791,794,794,796,799,800,800,799,796,793,790,793,796,796,797,799,801,801,799,803,802,803,804,801,802,804,805,808,808,809,808,808,805,801,796,793,793,797,798,803,803,805,803,801,798,797,794,793,794,798,799,801,801,798,791,792,789,788,787,789,792,795,797,795,794,790,794,794,795,796,794,790,788,789,792,791,786,784,781,787,789,789,789,789,791,791,791,791,795,794,793,793,795,799,802,806,808,812,813,818,816,817,816,820,816,816,822,827,829,831,830,831,827,822,818,813,815,816,814,807,805,797,791,785,789,786,784,783,784,784,785,784,785,783,783,781,780,786,789,786,783,779,780,789,804,834,885,952,1035,1125,1222,1321,1409,1479,1518,1520,1479,1387,1259,1131,1003,875,747,723,775,827,861,869,854,834,812,797,789,788,787,789,787,786,786,784,785,783,785,790,792,794,795,794,795,792,790,791,795,796,802,806,810,813,814,809,806,802,806,813,818,824,830,832,839,841,841,840,840,836,841,842,848,853,861,874,881,887,893,898,903,906,911,917,919,923,930,935,943,946,949,949,947,946,946,941,938,937,932,927,921,914,904,893,882,872,865,857,847,841,835,830,820,816,811,808,805,800,796,792,791,790,791,794,795,794,793,793,792,793,792,790,786,788,785,787,791,792,792,792,794,796,795,794,791,789,789,792,797,804,803,801,800,796,796,794,793,794,795,798,803,804,803,801,799,795,795,791,790,789,789,795,797,797,795,793,787,785,785,782,783,782,784,782,787,785,787,786,786,780,783,780,780,781,782,783,783,785,782,781,780,776,777,775,772,778,781,779,785,785,786,785,781,779,776,775,774,773,773,775,780,783,785,790,788,791,792,794,795,799,804,803,803,804,806,805,803,804,805,809,811,816,820,819,819,817,816,812,807,804,798,798,798,799,794,791,785,780,778,773,769,763,764,762,761,763,768,770,775,776,771,776,773,772,771,767,765,767,771,783,801,831,877,942,1022,1113,1212,1314,1404,1477,1520,1530,1514,1460,1358,1230,1102,974,846,718,688,743,801,839,855,844,824,797,777,766,762,760,763,767,771,772,774,774,774,777,777,776,772,774,772,775,777,779,782,785,787,789,788,786,788,783,786,789,792,796,802,807,807,812,812,813,816,819,820,827,827,835,844,845,850,851,856,859,865,873,879,885,891,897,906,911,915,918,917,919,919,921,923,926,931,932,934,931,924,917,909,901,891,879,868,855,848,843,841,834,827,820,811,801,794,788,783,781,782,782,783,782,783,783,781,779,779,778,775,777,776,781,782,782,780,781,781,782,783,780,782,780,781,785,787,785,790,785,787,785,782,786,785,786,787,789,792,792,788,788,783,781,780,781,778,780,782,784,786,785,784,782,778,775,778,774,774,775,774,776,781,779,779,777,779,775,769,765,764,766,769,771,773,772,772,773,768,769,768,768,765,767,768,769,769,770,769,766,764,765,765,765,764,767,769,772,770,771,770,771,770,775,776,773,775,780,785,789,790,788,786,784,782,782,788,788,793,794,799,803,802,799,798,793,788,786,784,785,784,782,778,775,772,765,760,756,750,751,753,753,752,758,757,759,759,757,759,757,755,754,756,752,753,759,766,777,794,824,871,933,1012,1109,1213,1319,1409,1471,1505,1506,1478,1408,1292,1164,1036,908,780,663,683,734,783,818,830,824,805,782,763,754,750,753,756,757,760,762,763,763,762,758,760,758,756,755,755,757,762,766,771,776,774,776,777,776,775,775,773,778,778,781,784,789,791,794,794,796,797,800,802,807,813,815,822,824,825,828,829,832,839,844,848,855,862,868,874,878,882,889,890,893,895,895,899,904,912,913,917,918,916,913,908,900,899,893,886,882,873,867,860,848,840,830,821,814,807,801,793,786,785,777,776,776,774,770,767,762,758,754,753,756,759,760,764,764,764,764,757,758,752,751,755,758,761,762,766,767,765,761,764,761,761,759,761,761,762,759,763,766,770,770,766,766,763,763,760,759,761,762,768,767,766,761,761,758,755,752,752,750,752,752,750,752,755,752,750,746,743,742,742
