872,874,875,871,868,869,867,869,869,874,876,880,881,881,885,883,885,884,880,881,882,880,880,884,889,885,890,892,890,890,887,885,885,887,886,888,893,894,894,896,895,892,894,891,896,895,899,903,907,907,911,911,913,909,910,912,915,917,921,923,930,935,935,938,943,945,944,945,951,956,961,966,970,974,979,981,982,984,986,988,992,994,997,1000,1006,1005,1006,1011,1007,1004,1004,1001,998,997,995,996,990,990,984,979,971,965,956,949,943,939,935,928,924,919,915,912,907,900,900,893,889,889,888,889,886,884,880,881,877,876,872,870,869,870,874,877,877,876,874,876,874,871,870,865,868,870,867,871,874,874,876,876,874,871,869,869,873,872,874,875,878,878,874,872,870,871,872,872,873,874,875,877,878,880,878,879,875,876,870,868,869,869,870,872,874,874,875,871,867,868,860,861,862,863,860,865,866,862,864,862,860,859,856,856,858,859,862,861,863,863,862,861,860,856,854,855,852,852,853,854,855,858,859,859,856,857,853,853,852,853,854,853,854,856,853,855,854,857,854,853,852,850,854,855,856,856,858,856,855,851,851,850,851,853,856,855,858,861,856,857,855,852,850,850,853,851,855,853,857,859,856,853,852,851,850,848,852,853,851,853,856,856,856,857,855,853,853,850,850,852,853,855,853,856,856,853,854,853,850,848,847,847,849,853,857,858,856,857,853,854,851,849,848,853,855,852,853,855,852,854,851,847,848,847,848,848,849,852,853,855,852,851,851,850,848,848,847,847,850,852,853,855,857,856,852,852,848,847,850,848,850,850,850,853,853,853,851,849,851,851,852,855,857,859,864,867,869,873,867,866,862,867,868,869,874,880,884,887,888,889,887,885,884,880,878,874,874,874,875,876,871,870,863,858,852,847,845,847,849,854,855,851,850,850,849,843,843,837,837,839,841,844,845,846,847,846,845,844,841,843,842,844,845,845,846,849,850,852,854,865,877,893,917,943,975,998,1015,1016,999,970,924,872,822,773,734,706,692,695,714,733,756,772,786,797,803,815,824,837,846,850,853,853,852,850,849,853,851,850,853,857,860,863,864,865,862,863,860,864,859,861,860,863,863,866,869,870,872,872,872,869,870,867,867,870,872,874,878,877,879,878,879,878,879,877,878,882,884,886,890,889,892,892,888,889,889,890,894,896,904,904,907,913,917,919,920,921,925,925,926,932,937,942,949,953,958,962,965,966,967,969,970,978,982,985,990,990,990,986,986,988,984,981,982,982,983,980,981,981,977,973,966,960,951,942,937,930,925,921,916,914,905,899,895,889,882,878,873,870,867,867,865,864,861,859,858,854,850,850,848,849,852,853,852,854,854,851,848,846,845,845,843,843,843,848,846,848,851,850,850,850,845,843,844,844,848,849,850,851,851,850,850,845,846,842,845,846,848,847,850,853,850,851,848,844,840,840,839,841,842,839,843,842,844,841,840,837,835,834,835,830,830,832,833,834,832,835,835,830,830,828,830,830,833,833,835,836,834,828,832,830,828,828,829,830,831,834,835,838,837,838,834,832,829,829,828,826,826,832,832,834,832,833,831,830,829,825,827,829,829,831,831,832,831,830,828,828,827,827,824,827,826,829,829,832,831,832,830,828,826,825,825,825,828,831,835,834,830,833,829,827,824,825,827,823,827,829,828,832,831,830,832,830,828,825,827,829,829,833,835,835,834,834,829,825,826,825,823,825,828,828,831,837,836,833,832,831,827,827,826,823,826,826,831,831,828,831,829,829,828,829,828,829,831,833,836,835,833,833,832,832,831,832,832,833,834,834,837,839,841,840,843,845,844,841,844,846,847,853,854,859,859,862,864,867,866,865,865,862,863,864,862,861,863,859,855,853,846,844,838,838,834,835,839,840,840,840,835,830,830,823,825,826,825,828,831,829,831,832,832,829,829,826,826,827,828,832,831,835,838,838,836,834,838,846,854,866,887,908,938,965,989,1009,1004,982,943,888,829,775,727,688,666,664,677,700,724,743,756,766,776,792,807,822,831,843,845,846,846,842,842,837,841,843,845,850,852,856,857,857,854,852,852,851,853,855,855,860,861,863,864,860,860,862,860,859,859,862,864,867,870,873,874,873,874,872,871,871,870,872,875,878,880,882,883,886,886,885,887,889,888,891,895,897,903,906,907,909,909,909,914,915,920,922,928,930,933,940,948,948,952,958,957,961,961,965,971,975,978,980,982,983,981,979,983,983,978,977,977,981,979,976,972,967,957,951,943,935,933,928,923,919,915,907,904,898,888,881,875,872,870,867,869,867,865,866,865,863,860,858,856,854,855,853,852,854,856,857,857,855,856,854,851,851,849,850,853,851,851,855,854,854,851,854,853,850,849,852,852,855,856,855,854,856,858,854,854,856,851,849,850,854,856,856,855,852,853,848,852,851,850,852,849,853,849,854,851,850,848,849,844,841,843,840,840,842,848,850,850,847,845,842,841,841,839,838,840,841,843,846,843,844,845,841,840,840,835,837,837,837,841,841,841,839,838,837,836,836,834,838,836,840,841,843,841,842,839,837,837,830,833,836,836,836,838,844,842,840,839,838,837,836,833,836,838,838,837,840,838,836,837,837,837,832,836,834,839,838,839,839,839,838,837,837,834,833,834,832,837,836,840,840,841,843,840,839,837,839,833,833,836,837,839,841,839,841,839,839,836,836,836,834,837,839,837,840,839,834,835,836,833,836,833,837,837,842,843,844,842,843,837,832,829,834,832,830,833,837,839,841,839,838,837,840,836,836,836,835,836,839,837,842,839,837,839,838,837,838,837,839,840,847,852,857,859,858,857,858,855,859,860,861,867,875,876,876,876,873,870,869,863,859,857,854,856,857,858,856,852,848,843,841,838,836,832,834,839,839,838,838,834,833,832,828,830,826,828,829,830,834,837,835,837,835,835,834,831,830,829,832,833,839,842,849,854,863,879,899,918,944,973,997,1010,1008,987,957,912,862,815,769,730,702,691,696,711,735,757,776,789,797,807,815,823,832,834,841,842,844,841,844,844,848,847,846,843,846,845,846,847,850,852,851,853,856,857,855,856,855,854,856,858,861,862,864,865,863,861,862,862,860,860,863,865,870,871,873,874,875,878,877,876,875,876,877,881,884,884,889,892,893,895,896,894,895,896,900,902,912,914,917,918,923,926,928,932,935,938,941,947,951,957,963,965,968,970,970,973,972,971,973,977,980,982,983,986,985,987,983,980,978,975,974,969,969,962,957,954,944,940,931,924,914,910,902,899,894,891,890,884,879,875,866,864,860,857,853,854,854,853,852,851,849,846,843,842,841,842,841,843,846,845,847,847,845,846,844,845,843,840,839,842,844,846,850,848,848,845,842,842,841,841,839,843,846,848,849,850,848,850,847,845,844,841,840,842,841,843,846,846,845,840,838,834,835,833,833,833,833,838,836,838,834,837,834,831,831,827,831,833,833,833,833,834,832,830,829,826,825,822,822,824,826,830,833,832,829,829,829,828,826,824,824,827,826,828,830,830,829,829,826,822,821,822,824,826,825,827,830,830,829,825,824,822,821,821,821,826,827,828,830,827,827,827,825,824,821,819,818,820,823,826,829,824,825,826,824,824,824,823,822,822,825,826,829,828,824,825,822,824,824,824,822,823,825,827,830,830,829,827,825,821,823,823,824,825,830,828,832,831,829,830,825,825,825,821,821,822,826,824,829,826,827,828,828,825,822,823,823,825,826,828,829,828,828,829,828,827,827,827,827,828,831,830,830,831,831,830,828,828,823,823,823,826,828,827,832,832,832,839,837,838,838,840,842,845,846,849,855,857,861,862,863,859,858,857,857,855,851,855,852,852,850,849,844,841,835,828,825,827,830,831,831,828,833,830,828,822,822,818,818,817,818,823,823,823,824,825,823,819,818,822,819,823,823,827,827,828,828,827,826,834,843,858,879,908,939,964,986,992,972,935,881,825,768,721,682,655,655,667,690,714,735,751,762,771,784,795,806,819,824,832,835,833,831,831,831,832,834,830,833,840,840,843,848,847,844,846,843,839,840,837,841,844,846,850,854,853,851,852,854,851,848,848,847,849,852,856,860,859,863,859,859,856,856,859,857,861,863,871,874,874,876,876,877,874,874,878,881,886,891,896,900,906,908,911,912,914,915,917,918,926,929,938,941,944,948,953,955,957,959,958,961,966,969,974,977,979,978,978,975,974,972,972,971,969,964,964,962,959,951,944,938,929,924,914,906,903,900,891,890,885,881,871,867,865,859,853,852,852,851,851,853,849,847,843,846,845,844,844,842,841,842,844,847,846,847,843,844,841,836,834,834,835,838,844,844,846,845,844,843,842,840,839,835,837,841,841,842,844,844,842,840,841,842,838,841,841,842,843,843,844,841,840,837,835,833,834,835,832,838,836,841,840,838,839,834,833,831,830,828,828,831,835,838,837,837,835,836,834,830,829,832,830,833,833,834,836,833,832,828,826,829,828,828,830,830,830,834,832,831,828,828,827,824,823,825,827,830,834,835,835,836,833,832,826,825,824,828,829,824,830,834,831,833,835,832,830,831,829,828,831,826,833,833,834,834,833,833,831,828,823,824,825,826,832,835,834,835,834,832,830,828,826,828,827,829,830,833,834,833,834,832,831,829,832,830,831,833,835,835,838,834,833,833,832,830,830,831,828,832,837,837,838,836,838,836,834,832,831,831,833,835,835,838,841,839,836,835,835,835,836,835,832,836,837,842,843,839,839,840,838,835,838,839,838,838,845,847,847,854,853,854,855,848,854,855,859,866,869,872,873,874,875,870,868,866,857,857,856,859,859,860,859,856,855,849,845,839,838,838,834,837,834,837,839,837,835,833,831,827,826,829,826,832,833,834,835,837,835,832,832,826,830,832,834,837,837,839,840,844,849,854,868,886,907,935,967,993,1012,1012,999,964,918,866,814,768,728,701,695,703,720,744,765,780,794,803,808,822,829,836,838,842,843,843,845,845,847,843,843,848,846,847,851,851,852,854,857,858,860,854,857,855,856,854,852,859,859,860,866,863,864,860,862,860,862,862,861,866,869,869,871,871,871,867,871,872,876,877,878,884,885,885,890,893,894,894,894,895,896,900,900,905,908,913,917,919,924,924,924,926,931,934,938,945,948,955,958,963,963,966,968,969,968,974,972,976,980,979,981,984,986,984,984,983,978,975,972,969,970,967,960,955,946,937,930,923,916,910,908,903,902,895,888,883,879,875,871,868,861,856,855,855,856,856,856,855,857,852,853,850,848,847,849,849,847,848,850,847,846,846,847,843,843,842,844,846,850,852,854,854,854,851,849,848,845,846,847,850,850,853,855,850,850,852,849,848,846,846,845,848,847,851,850,851,848,845,846,844,844,843,844,845,844,846,844,844,842,840,840,834,835,832,832,833,838,840,846,844,843,837,838,836,835,833,833,834,836,838,836,838,835,835,837,835,832,833,836,835,837,839,840,837,837,837,834,829,830,829,827,833,834,834,839,834,836,834,831,831,831,827,830,828,831,836,835,838,837,833,831,829,827,828,830,832,832,834,833,834,832,835,832,834,832,830,832,833,833,834,837,838,837,833,831,829,828,830,828,830,829,832,835,837,839,836,837,833,833,834,832,833,833,837,839,835,836,837,834,833,833,832,834,832,834,837,834,834,837,836,835,833,830,831,833,834,837,837,842,840,839,838,833,831,829,830,830,833,835,836,839,837,834,834,837,835,834,834,833,836,837,837,838,835,836,835,835,836,835,836,839,842,845,852,854,851,851,851,852,852,853,854,859,864,867,868,870,873,875,869,867,864,854,851,856,856,856,856,851,847,846,839,838,835,833,830,834,831,833,836,834,830,831,828,827,822,821,824,826,828,829,833,831,830,827,828,825,826,826,825,829,830,830,836,842,851,862,881,903,926,955,977,989,984,960,921,870,817,769,725,697,683,689,708,731,755,771,788,806,816,826,831,834,833,833,834,833,833,837,843,846,845,846,848,847,846,847,845,848,849,851,854,856,854,849,853,854,854,855,855,853,856,858,862,861,862,862,863,859,857,858,858,862,864,866,868,872,868,873,872,872,869,873,876,880,880,884,885,888,890,892,891,892,895,895,898,898,907,911,915,920,922,927,930,930,933,936,941,941,944,952,956,961,964,964,964,962,962,963,967,967,968,968,972,975,971,971,969,962,958,951,947,941,936,932,926,922,918,913,904,897,891,884,880,874,871,869,870,868,863,859,856,851,846,842,847,846,848,848,852,850,850,850,844,843,843,840,841,841,842,846,845,847,845,846,845,844,840,841,841,844,844,845,848,848,847,847,847,844,844,843,843,840,845,849,850,852,851,851,847,842,845,843,838,841,841,841,845,843,843,846,843,838,834,833,834,836,835,836,838,838,837,834,837,833,833,833,832,829,834,834,838,837,838,832,835,829,827,826,831,827,830,834,835,833,833,834,832,829,829,827,828,827,830,835,834,831,830,835,834,830,830,825,826,831,829,830,834,833,835,835,832,830,827,823,824,825,827,831,833,836,836,835,834,831,828,826,828,828,829,832,832,835,834,834,832,831,831,829,829,828,830,832,834,832,831,831,826,827,827,831,830,828,831,834,834,836,836,834,834,831,832,831,831,831,833,833,833,833,836,836,834,831,831,831,827,826,830,832,833,833,833,835,832,837,834,831,834,836,838,838,841,841,841,834,837,836,834,831,830,830,832,835,839,839,841,842,838,836,837,837,838,838,842,848,851,851,856,854,851,852,855,856,858,861,863,866,868,870,866,863,860,855,854,854,854,855,854,847,846,838,838,836,833,834,831,828,827,829,832,832,832,832,833,832,830,828,830,829,824,829,829,832,829,829,833,836,835,835,833,833,837,841,849,863,875,901,923,954,980,998,997,970,929,877,821,767,722,692,681,681,704,726,746,763,777,791,806,819,832,843,849,850,850,848,847,843,846,847,851,852,856,855,855,857,856,855,853,854,854,858,860,865,864,866,868,868,868,866,864,863,862,864,868,868,871,872,875,875,873,873,873,872,871,873,874,880,883,885,884,884,885,885,889,891,890,894,897,902,906,910,910,913,915,916,917,920,921,924,929,930,940,945,947,952,953,955,957,958,961,963,969,972,976,978,978,979,979,978,978,978,977,978,978,979,980,976,975,968,960,954,951,945,937,935,929,925,922,916,911,908,902,894,888,883,881,875,874,871,873,872,872,868,867,866,868,863,865,863,864,863,866,868,864,865,862,859,859,859,859,863,864,862,865,866,865,864,867,862,860,861,859,860,859,863,865,868,867,868,867,867,864,859,863,864,865,866,866,866,867,866,862,861,856,854,856,856,856,862,864,864,863,859,858,857,855,854,852,853,854,852,855,856,853,859,857,852,852,851,849,850,849,849,850,851,851,850,850,850,849,849,847,844,848,850,852,855,854,854,851,852,847,844,842,844,844,851,849,853,853,853,851,851,848,847,847,846,846,846,850,850,850,847,845,844,844,846,845,848,846,849,849,854,853,851,853,847,844,843,841,842,845,847,851,852,853,853,850,847,847,846,844,843,843,848,849,853,852,849,849,847,847,847,845,846,846,850,851,849,850,851,848,849,845,847,845,845,846,851,851,854,854,853,853,851,848,849,842,845,848,848,848,850,852,852,852,851,850,850,848,847,851,851,851,852,850,849,850,848,847,846,847,846,850,850,853,854,853,853,855,850,848,848,847,848,852,849,854,859,861,862,865,869,868,867,867,865,869,872,878,880,882,883,883,882,879,881,877,874,875,871,871,872,874,874,867,865,860,854,850,847,847,849,851,856,854,854,850,849,848,847,844,841,844,843,844,846,847,846,845,843,843,844,842,844,845,843,847,850,851,850,851,850,853,859,874,893,919,947,977,1004,1017,1013,990,946,893,838,785,740,709,700,712,732,761,779,796,810,820,833,842,848,855,856,856,857,857,856,857,857,856,858,855,857,862,866,867,871,870,872,869,871,867,866,864,864,865,867,871,877,877,876,877,878,877,873,876,874,876,880,883,880,883,883,882,885,886,887,889,888,893,894,895,900,901,903,902,898,899,902,901,906,911,918,923,929,932,934,937,938,940,942,945,947,952,954,960,965,964,967,971,974,975,978,978,981,987,987,990,995,990,991,990,986,987,979,981,979,979
