880,880,878,878,880,880,884,885,890,894,900,901,905,907,904,904,907,911,913,916,919,924,929,930,932,933,934,932,934,934,934,940,943,943,947,948,947,942,941,937,933,930,926,923,922,920,917,917,911,907,899,897,893,887,886,882,880,878,878,877,877,875,873,869,867,867,866,866,869,868,871,871,867,868,865,864,863,861,863,862,865,867,869,868,868,870,867,867,865,864,862,863,867,869,870,871,873,873,870,868,869,866,867,869,871,873,869,871,875,872,871,871,867,870,869,869,869,875,875,876,877,874,872,868,868,868,869,866,865,872,870,873,872,872,869,866,864,862,862,862,863,866,867,868,869,866,866,863,861,854,856,861,861,862,864,864,862,859,857,856,854,857,853,855,853,859,858,862,862,860,859,855,855,852,852,853,857,858,859,858,859,860,859,857,856,854,851,856,855,859,859,859,859,859,856,855,850,853,853,850,854,855,861,859,856,858,857,856,854,854,849,851,853,856,859,858,860,858,858,855,851,852,852,854,855,858,860,859,859,860,857,852,853,853,854,853,854,855,854,854,860,857,856,855,851,850,852,852,856,857,858,859,859,854,853,854,854,851,852,852,853,855,860,860,859,861,856,853,853,851,853,853,854,856,859,863,861,859,857,858,856,856,855,855,856,856,860,862,860,861,859,859,855,853,854,852,856,858,861,858,862,861,858,858,856,854,854,856,858,864,865,870,875,877,880,879,879,876,875,877,884,889,896,898,901,898,896,894,888,888,886,885,885,888,887,888,883,880,874,867,865,857,853,853,851,852,850,852,848,852,847,847,844,844,844,844,845,846,848,850,851,851,848,846,843,844,843,846,846,850,850,851,850,851,850,849,850,849,849,849,855,857,860,863,867,870,868,869,871,882,901,934,976,1028,1079,1136,1188,1243,1277,1289,1259,1194,1098,991,876,789,737,725,746,780,813,833,844,842,838,835,836,842,849,857,860,860,859,855,853,849,849,847,852,855,857,861,859,859,857,856,855,852,854,853,855,856,858,860,859,856,857,857,854,853,852,853,856,857,858,860,859,860,858,855,855,852,855,854,858,860,861,863,863,861,861,864,861,862,862,864,866,870,872,869,876,876,876,875,875,875,877,881,883,887,890,894,899,901,899,903,904,905,909,911,916,921,924,930,936,937,941,941,939,943,942,944,948,953,955,956,954,955,953,946,944,941,937,933,929,927,925,921,916,910,904,898,894,888,886,883,878,880,878,880,879,876,874,871,867,867,863,863,864,868,869,869,871,867,864,865,861,860,861,861,861,863,866,865,866,867,864,862,860,862,859,861,863,867,867,868,871,870,868,865,864,863,861,862,867,868,868,869,869,871,870,868,864,863,864,859,863,866,869,873,872,873,871,866,865,858,858,859,859,864,865,866,864,866,862,858,859,856,859,858,857,859,861,863,865,863,862,860,856,856,855,853,855,854,857,859,857,858,859,856,851,851,850,848,849,849,850,853,855,856,856,851,849,848,848,847,850,850,849,850,850,853,851,850,847,845,847,845,850,848,852,853,854,852,851,848,843,847,844,845,846,849,851,852,852,849,850,849,846,845,844,845,847,850,849,851,854,852,851,849,849,847,846,847,846,849,851,853,855,854,848,847,845,846,845,844,849,847,852,853,855,851,852,851,848,845,848,847,849,848,852,855,854,854,852,848,847,847,845,845,850,851,851,852,855,853,852,849,849,848,846,848,847,851,852,854,854,855,853,847,848,847,847,850,851,849,853,854,853,852,852,851,847,846,845,847,849,854,851,855,857,855,854,850,849,849,848,849,851,853,856,862,860,864,865,869,868,869,871,869,871,877,881,885,889,891,895,891,889,890,887,885,882,878,881,885,883,885,881,875,875,868,862,858,854,853,851,851,851,849,848,842,841,838,834,835,838,841,841,842,843,842,839,838,836,837,836,838,836,842,840,841,846,847,845,845,842,843,841,844,844,847,851,852,852,855,855,856,856,854,856,865,870,891,921,963,1010,1052,1099,1145,1191,1233,1248,1228,1176,1098,997,899,808,750,718,716,737,765,791,801,811,814,816,822,828,838,842,845,849,846,843,844,842,842,843,849,852,851,848,850,849,845,844,842,841,848,852,854,853,853,853,846,847,844,845,845,849,852,852,851,852,854,854,853,853,851,848,846,849,854,852,855,858,856,857,851,850,847,849,850,851,858,862,864,866,864,865,864,863,865,863,867,865,869,874,878,880,884,885,882,884,883,889,891,893,898,902,907,911,914,916,917,918,916,917,920,923,927,933,938,939,939,940,941,940,941,933,935,935,936,938,938,935,928,923,917,914,909,905,902,897,898,897,896,893,886,882,877,874,872,869,868,864,867,867,867,867,864,863,862,857,858,857,854,855,858,859,862,860,864,861,859,858,854,856,854,856,859,861,862,862,861,858,862,858,859,860,856,858,860,862,864,867,867,868,863,864,861,859,858,866,867,868,871,870,867,867,863,863,863,859,860,858,862,862,867,864,865,866,862,859,856,857,856,855,860,859,863,861,860,860,856,854,856,855,852,853,856,854,857,857,858,857,856,855,849,848,851,851,853,853,858,854,857,853,852,850,850,849,850,848,850,849,852,852,852,851,849,848,844,848,846,849,848,850,852,852,851,852,851,849,847,845,843,844,848,850,856,854,849,850,848,845,840,844,845,846,851,853,852,850,854,853,852,850,851,846,849,851,852,852,855,853,855,855,848,852,849,847,847,850,853,853,853,854,852,852,850,849,852,850,848,851,852,852,854,857,855,854,850,848,848,847,847,850,849,853,853,855,856,854,851,848,852,851,848,851,851,854,856,858,854,856,851,848,850,848,848,852,851,857,858,861,857,857,855,852,853,854,855,859,862,867,871,874,876,876,876,873,870,869,874,880,888,894,902,903,901,896,894,890,885,883,882,885,886,885,886,883,878,870,861,858,854,848,847,847,846,850,851,851,851,849,848,845,840,842,841,845,842,843,850,849,849,849,846,843,842,842,843,845,846,849,851,852,853,852,851,851,849,850,850,851,856,858,863,864,863,867,868,868,880,905,943,988,1040,1093,1154,1210,1256,1272,1255,1200,1117,1008,895,802,736,710,715,743,773,797,813,822,824,826,836,843,849,856,859,860,856,851,852,850,849,849,849,851,853,856,855,854,854,855,855,854,854,851,851,853,855,861,863,860,859,860,859,858,857,855,856,858,860,860,861,862,864,866,864,862,863,858,859,857,861,865,868,872,873,871,871,870,870,867,870,872,875,877,880,885,884,885,886,883,884,887,888,892,897,901,902,905,906,911,913,914,913,919,918,922,923,930,934,934,937,938,938,939,938,940,941,945,948,949,948,950,945,946,940,941,933,930,926,923,920,916,917,915,910,907,901,896,890,885,885,883,883,883,881,882,880,879,876,871,870,872,869,866,868,874,875,874,872,873,873,871,868,865,866,865,868,872,872,871,871,873,871,871,871,872,870,872,870,872,874,877,875,874,877,875,873,871,868,869,872,877,878,876,879,879,874,873,873,871,871,872,871,873,875,876,876,875,874,872,874,872,870,871,873,874,874,874,874,873,872,868,867,869,864,866,866,869,870,871,869,869,867,864,861,861,863,862,863,866,868,868,867,864,865,862,859,858,855,856,855,859,863,864,860,860,861,859,859,856,857,858,861,861,864,866,863,865,859,860,854,857,857,857,859,860,860,859,859,858,855,853,855,855,853,856,857,861,861,862,862,858,859,858,858,857,857,852,857,858,862,862,864,862,861,856,855,857,855,857,860,860,862,861,859,858,857,855,855,858,856,856,859,858,858,860,862,861,859,857,854,856,856,858,860,862,863,864,865,862,864,860,861,860,859,860,862,862,863,865,864,864,861,861,862,859,856,858,859,862,867,865,865,866,865,862,857,858,857,858,860,862,868,867,870,865,867,863,862,861,860,861,863,865,867,867,869,870,865,865,865,862,861,863,862,864,869,870,872,867,868,868,867,869,871,874,881,885,888,893,892,892,890,889,892,895,901,904,906,909,906,908,905,901,898,896,895,889,889,887,890,888,885,883,878,872,868,864,860,858,853,855,858,855,853,858,859,857,856,855,856,854,853,855,856,855,859,859,859,856,856,854,852,853,853,852,854,858,856,863,861,864,865,862,863,861,861,865,869,871,874,881,886,900,923,959,1004,1047,1095,1145,1197,1245,1277,1282,1255,1192,1110,1007,902,812,752,728,742,774,811,836,849,851,845,839,840,843,847,853,858,862,864,864,863,861,860,858,859,854,859,855,857,863,864,865,865,865,864,862,859,857,856,857,860,861,862,862,862,861,862,860,858,859,858,858,861,862,866,867,864,866,865,862,863,862,863,864,868,868,869,871,870,871,870,867,866,869,868,868,871,876,878,882,882,886,886,883,883,884,885,888,889,895,902,902,906,909,912,911,911,912,913,916,923,927,931,935,933,937,938,939,940,942,942,946,949,954,956,958,958,957,956,954,952,946,943,939,938,936,932,928,923,917,914,908,904,897,891,890,887,886,887,889,885,883,880,880,878,876,874,873,874,876,877,875,874,876,874,870,868,868,868,866,869,871,872,873,873,875,874,869,868,868,869,865,870,872,874,877,876,879,875,875,874,872,869,870,874,874,874,879,879,878,873,876,874,872,872,871,873,875,876,879,879,877,877,876,872,869,869,870,870,873,875,875,875,874,871,871,869,868,865,864,865,867,869,871,869,871,870,867,864,863,862,861,864,863,862,867,869,863,864,864,862,859,860,860,861,864,865,865,869,867,864,861,857,860,858,859,863,862,860,866,865,867,865,862,860,861,860,860,861,859,863,866,863,862,862,861,859,858,857,857,858,857,857,864,864,863,859,859,856,856,855,855,859,858,862,864,864,865,862,861,858,855,860,858,857,862,862,861,862,861,859,858,856,855,857,856,856,858,860,860,861,862,859,859,856,854,853,856,855,859,860,863,866,864,862,858,856,856,854,857,855,860,862,863,862,862,861,858,855,854,858,857,859,862,862,863,862,863,864,862,858,861,858,856,857,860,860,865,864,869,866,863,863,861,859,860,863,864,867,869,869,867,868,869,870,871,871,874,878,884,887,890,887,888,888,887,888,893,899,903,905,907,905,904,901,896,892,892,893,892,891,889,888,886,879,874,869,865,860,858,856,855,852,850,849,857,858,859,858,858,856,850,852,853,855,856,856,858,855,860,861,860,858,860,855,856,856,857,858,861,860,865,862,865,866,862,864,862,863,864,869,872,874,882,891,912,939,976,1019,1065,1108,1166,1216,1245,1251,1218,1151,1064,962,867,788,742,729,736,768,794,815,827,833,837,841,846,854,858,861,863,865,863,859,863,864,865,863,861,859,860,859,858,860,862,864,867,868,866,866,865,863,863,862,862,862,864,867,867,867,866,862,864,863,862,864,863,863,866,867,868,869,870,869,866,864,864,865,865,866,868,871,872,875,874,875,876,877,876,877,876,876,881,886,892,892,896,895,897,896,898,900,905,906,912,914,919,922,922,922,923,925,925,927,929,932,937,940,945,946,946,948,947,946,948,944,943,945,946,943,944,941,936,931,928,923,920,915,911,910,906,906,903,897,891,888,883,880,879,877,875,876,875,876,880,874,878,874,869,867,867,868,865,869,869,871,875,874,874,872,870,868,866,865,863,867,868,870,871,873,875,873,874,868,869,868,868,875,874,875,880,877,880,878,878,875,875,874,875,876,878,878,881,882,881,880,879,878,876,876,876,878,878,880,879,881,881,881,878,875,874,872,871,874,875,876,879,875,877,875,872,868,867,867,869,868,869,869,869,871,871,870,870,868,867,864,861,860,861,868,871,868,870,869,866,864,863,863,863,863,866,866,868,873,872,873,871,868,863,859,859,861,865,867,871,873,872,869,866,863,866,863,863,862,865,865,869,869,870,871,868,869,867,863,865,866,866,868,869,871,870,868,867,868,866,864,866,866,869,868,871,870,872,871,868,865,864,865,868,866,869,872,873,873,874,872,871,870,869,869,866,870,870,876,875,876,880,879,880,884,883,887,887,888,893,894,898,898,901,906,905,907,908,905,901,901,899,900,904,898,898,903,901,897,894,888,881,875,871,871,872,870,874,870,866,863,861,859,859,860,863,863,864,867,865,865,862,862,862,858,858,858,862,866,868,868,868,865,864,865,864,866,866,867,868,871,875,875,880,876,875,876,877,876,883,889,914,945,985,1032,1079,1129,1180,1228,1263,1270,1242,1180,1093,992,891,804,749,725,736,757,786,809,823,829,831,838,845,855,862,869,873,873,871,865,864,864,864,865,869,871,871,873,872,868,869,867,867,868,866,869,871,874,874,875,873,870,865,867,869,871,869,872,875,874,873,876,874,870,870,870,869,873,873,875,877,879,877,878,874,872,870,872,873,876,879,882,882,887,883,884,887,884,882,887,888,889,892,895,901,903,904,903,903,903,905,907,909,913,915,920,925,927,930,934,937,938,939,940,940,942,946,947,953,957,958,959,960,955,956,955,956,955,956,955,959,954,951,950,944,938,933,927,925,922,921,920,914,912,911,904,901,896,889,890,887,886,890,883,885,889,890,886,885,879,879,878,876,878,875,880,884,879,880,876,875,877,877,876,876,876,880,881,880,883,883,884,881,880,877,875,874,876,877,882,883,884,886,887,884,883,881,880,883,883,886,887,889,890,889,890,888,886,885,883,881,883,887,889,890,891,890,889,886,885,883,883,879,879,882,884,885,886,884,886,882,879,879,877,877,875,878,880,880,883,881,883,880,878,878,877,874,874,877,879,876,877,876,878,875,874,873,872,871,870,874,874,873,876,875,874,872,869,870,869,869,868,870,872,874,874,875,874,873,869,868,866,863,865,868,869,871,872,873,871,867,867,861,862,861,866,867,870,872,872,871,871,868,870,868,864,867,866,867,870,869,870,870,873,871,868,867,865,866,866,869,869,872,873,873,874,871,868,867,863,865,867,869,872,872,874,872,873,873,869,867,864,864,864,867,869,872,872,873,870,872,867,869,866,863,864,865,867,872,873,871,872,870,867,866,866,866,866,870,872,872,874,875,872,870,872,872,873,871,872,877,884,885,892,894,892,891,889,889,887,893,897,905,910,912,912,910,904,901,897,896,892,892,890,892,891,885,886,888,881,875,871,863,859,858,858,859,860,862,863,861,862,860,860,858,856,854,855,856,859,860,861,860,859,860,856,856,856,856,856,858,862,861,863,866,866,864,864,861,862,861,863,865,868,870,877,880,893,907,936,977,1021,1068,1119,1174,1222,1260,1272,1246,1184,1094,989,881,793,744,734,753,791,827,849,855,857,852,848,852,852,856,860,863,866,865,866,863,861,862,862,861,860,859,859,858,863,866,868,869,864,863,865,861,862,858,861,860,862,862,862,864,866,867,866,863,861,861,862,862,865,868,866,868,872,870,868,861,863,865,867,869,869,870,875,873,875,875,875,872,871,876,877,880,884,887,891,893,894,894,896,896,896,899,899,907,912,918,922,924,927,927,928,925,930,931,935,937,941,946,951,954,955,957,955,954,953,952,953,952,953,951,953,945,943,937,932,925,925,918,913,909,908,906,903,902,899,892,892,885,881,880,878,878,879,879,879,880,878,878,872,870,866,867,866,867,870,872,875,872,874,873,868,869,865,864,869,869,872,874,877,877,877,875,872,872,868,869,868,870,872,875,878,875,876,874,874,871,869,869,870,873,877,875,879,879,878,876,875,871,871,871,871,871,871,874,878,877,877,875,872,869,867,867,867,866,869,871,871,873,872,867,868,866,862,862,862,862,864,865,867,866,868,868,862,861,861,859,859,859,861,864,864,866,866,861,862,857,858,856,859,861,859,859,862,863,861,861,856,853,853,853,853,851,856,857,858,863,863,859,859,858,855,856,856,854,855,860,859,862,860,860,857,854,854,852,853,856,859,860,858,860,859,857,855,854,851,852,851,854,853,857,859,858,860,857,853,855,853,851,854,856,859,855,860,859,859,856,854,852,852,852,853,851,855,858,859,856,854,856,855,855,853,849,852,855,856,855,859,860,859,858,854,853,852,852,853,856,856,859,860,861,860,861,856,854,853,851,849,855,857,862,862,861,862,866,867,870,871,872,873,873,876,878,881,883,888,894,887,886,883,881,876,875,875,877,879,877,880,875,870,866,861,856,853,851,851,850,852,850,850,850,846,845,844,841,841,841,844
