828,824,823,822,819,823,822,821,829,829,829,826,823,823,821,823,822,818,820,817,816,818,815,817,815,814,813,810,811,813,813,815,815,814,813,814,813,811,811,809,811,812,811,814,813,815,816,815,813,812,812,808,803,808,807,810,813,814,812,813,811,809,806,804,804,808,807,809,812,814,813,813,811,809,807,807,808,805,809,808,810,811,812,812,808,807,804,803,803,805,807,809,812,809,813,814,812,812,810,807,808,805,806,809,810,813,809,813,809,807,805,804,805,805,807,810,810,812,810,810,807,806,806,807,805,806,810,810,813,814,813,809,811,810,809,806,804,804,806,809,810,811,809,812,811,809,806,806,803,804,805,807,810,811,811,811,809,809,806,801,804,805,807,808,811,815,815,812,809,809,809,807,806,807,806,807,811,814,813,814,810,807,808,807,805,804,807,808,810,813,815,812,811,809,807,809,806,807,808,811,813,820,820,823,823,823,823,819,820,821,826,827,833,840,843,841,846,845,843,842,838,837,840,836,836,838,835,833,830,828,821,816,813,810,808,809,813,813,812,814,810,807,805,805,802,802,803,801,801,804,806,804,802,801,802,797,796,796,800,803,806,812,812,811,808,807,809,814,821,836,854,879,906,937,958,968,960,926,878,821,768,714,675,651,645,659,679,704,723,740,757,769,780,789,801,808,812,815,811,809,810,809,809,812,815,813,819,820,823,823,825,825,824,823,819,824,820,822,824,827,831,834,836,834,833,832,832,831,827,829,831,834,838,840,839,839,839,838,842,842,842,842,848,848,852,854,853,860,858,857,859,857,855,857,863,867,872,876,882,883,888,889,891,897,897,900,905,910,915,922,927,930,934,935,936,936,937,936,940,949,948,953,952,950,948,947,945,942,941,936,937,932,928,926,921,912,906,893,888,880,877,872,865,860,859,858,852,850,845,840,835,832,829,827,828,828,826,828,826,826,824,819,820,817,819,819,819,820,821,827,824,824,822,819,817,818,818,819,820,823,823,826,824,823,821,816,818,816,817,814,818,821,821,823,823,821,822,818,826,822,822,820,821,823,824,824,822,820,821,818,818,815,815,814,814,815,819,818,817,815,815,812,811,812,809,806,812,813,817,819,817,817,816,815,812,812,809,810,811,812,812,815,813,809,814,808,804,805,806,807,810,812,811,814,810,809,806,805,806,806,803,803,806,808,811,815,813,814,813,809,806,807,806,804,807,809,806,814,813,813,813,810,809,810,809,808,809,808,810,810,811,810,810,807,807,806,804,803,805,811,814,816,816,815,813,809,809,806,804,808,806,807,809,815,814,815,814,812,809,810,807,807,812,811,812,816,816,815,814,808,807,811,810,810,813,812,817,821,817,818,815,815,809,812,808,811,813,815,817,819,819,818,820,819,816,814,815,816,817,819,821,821,820,820,819,823,818,814,816,816,820,820,822,829,829,831,827,829,829,831,831,834,831,836,840,846,849,851,854,854,854,851,852,852,854,849,850,848,846,846,844,840,837,838,833,831,827,827,823,824,823,822,819,816,817,814,815,812,816,815,816,818,817,820,818,818,817,815,813,812,816,818,819,820,821,821,820,822,824,824,826,828,839,854,876,903,929,962,987,1001,993,967,924,869,816,764,719,689,673,682,700,724,744,760,774,787,800,812,821,829,834,832,833,830,829,828,830,829,833,837,839,841,842,842,843,841,842,844,845,841,843,845,847,852,855,854,854,853,851,851,848,850,854,856,861,861,860,861,863,861,857,861,859,860,866,865,871,873,877,877,878,879,879,878,878,884,885,890,894,901,899,905,905,905,909,909,908,911,920,925,930,936,941,944,947,948,951,951,953,954,961,961,965,968,970,970,969,970,970,965,966,964,966,965,963,962,957,950,946,938,932,923,917,913,907,905,901,897,891,884,882,874,868,861,858,857,853,852,854,854,854,854,850,848,847,844,842,841,842,842,844,844,844,844,846,844,840,844,841,839,840,841,841,848,849,847,844,843,843,840,841,840,841,842,847,849,848,847,845,846,844,842,839,838,841,843,843,847,848,844,846,843,841,838,838,838,838,837,839,842,843,838,836,835,833,834,829,833,833,838,837,840,837,836,834,833,831,829,828,829,831,835,835,836,835,829,834,831,829,828,827,828,831,832,833,832,831,831,831,828,828,828,826,829,829,831,830,835,833,832,832,830,830,823,821,822,827,829,832,836,835,836,833,830,830,828,828,826,827,827,829,832,834,835,829,832,831,830,826,828,826,829,831,834,836,835,834,828,828,827,827,825,828,831,830,833,834,832,833,830,833,829,826,825,823,822,825,825,828,830,827,829,827,825,826,825,826,832,832,836,834,834,833,832,828,830,830,830,826,830,828,830,834,836,835,833,832,832,828,829,829,830,830,835,833,834,835,834,831,829,829,829,833,834,833,835,835,835,833,831,828,828,827,826,826,827,834,835,834,837,835,835,833,835,837,841,844,847,852,855,855,855,857,859,859,859,862,863,865,866,866,867,862,862,861,855,852,851,850,847,850,845,843,842,842,837,832,831,830,825,826,822,824,826,828,829,830,830,829,827,827,824,822,822,822,823,825,827,829,826,826,827,824,826,829,829,835,846,858,876,897,919,947,968,987,983,963,925,878,826,778,733,699,679,673,683,703,725,742,758,770,782,798,811,821,830,836,838,835,832,830,832,831,838,840,843,844,847,843,844,842,843,842,842,847,852,850,854,857,859,856,852,851,849,846,849,851,855,857,861,861,863,862,862,861,860,861,859,861,860,863,868,870,872,873,870,867,867,870,874,877,882,886,887,891,895,896,894,894,896,894,898,901,907,913,920,923,925,933,934,937,940,941,947,951,951,958,961,961,965,969,970,973,971,974,972,974,977,977,978,979,976,973,966,964,957,951,947,944,938,935,928,922,918,910,904,895,889,881,874,872,870,869,867,862,861,858,856,852,848,847,846,847,846,849,848,848,845,845,841,839,839,839,837,839,841,841,841,845,845,847,842,839,839,837,840,838,841,843,845,846,846,845,845,843,843,841,841,841,842,845,847,846,847,845,843,841,840,840,841,839,842,844,844,845,840,842,837,837,832,830,833,831,833,837,840,838,838,836,831,832,826,827,829,831,834,833,834,834,835,833,832,832,827,824,825,829,829,831,834,833,833,830,831,829,826,824,822,824,827,829,829,833,833,833,827,827,829,827,825,825,827,829,828,831,829,829,825,822,822,824,823,822,826,828,830,830,829,827,827,825,824,823,823,824,828,827,831,832,832,832,828,827,826,820,820,821,822,824,827,830,831,829,829,829,826,826,826,824,831,829,828,829,831,827,828,824,825,827,824,823,826,829,827,833,833,831,828,829,827,825,827,826,829,828,830,833,833,833,831,831,826,827,829,831,831,832,831,831,832,830,829,827,824,826,827,828,832,831,834,835,835,837,835,834,834,830,833,831,834,836,836,843,845,845,847,846,848,848,850,850,854,857,859,863,864,867,868,869,866,865,865,868,864,863,864,864,863,861,858,853,846,838,834,834,833,835,839,836,835,840,836,833,833,828,828,830,829,833,832,833,832,835,831,831,831,830,828,831,832,838,834,838,839,839,837,839,837,844,849,864,889,911,941,972,995,1012,1010,985,947,897,839,787,739,702,682,684,696,718,740,761,767,777,789,804,818,833,841,849,850,848,842,843,839,839,840,843,846,851,854,859,857,856,854,852,853,850,853,858,856,857,864,862,862,862,861,863,865,860,861,862,867,869,870,869,872,871,871,872,869,869,868,873,876,880,882,883,884,883,884,887,884,887,885,891,893,896,900,905,906,908,910,910,913,911,914,920,925,930,936,937,940,945,948,948,949,951,953,959,963,968,973,976,981,982,980,981,980,980,978,977,981,979,978,980,976,974,965,958,954,948,942,938,934,927,920,919,909,903,896,889,883,878,873,870,866,866,867,866,858,857,854,854,845,847,847,848,851,851,854,856,850,851,851,851,849,846,844,845,845,848,850,853,852,853,851,849,848,845,847,847,848,853,853,853,847,848,849,844,844,845,847,849,847,850,855,855,855,855,852,847,844,841,844,844,845,845,847,846,848,845,846,841,840,839,837,838,841,842,842,844,843,842,840,840,838,834,834,834,837,838,837,838,842,840,836,836,832,830,828,830,834,834,836,836,841,840,839,836,837,831,833,832,832,834,833,836,837,838,835,835,833,834,834,836,837,839,841,841,839,838,838,839,834,836,835,834,835,840,841,843,841,842,840,839,836,835,833,835,835,840,842,840,843,841,840,839,838,836,836,835,838,836,839,839,839,841,839,834,834,837,836,836,837,840,843,843,839,839,838,835,833,836,832,834,836,840,843,841,840,844,842,840,838,838,839,842,840,841,842,840,841,841,840,840,840,841,836,838,839,838,841,844,838,842,842,843,842,840,840,838,843,844,843,847,846,847,845,843,841,838,839,841,844,845,846,843,846,850,849,852,853,851,858,860,864,866,865,868,869,870,870,873,875,875,874,877,877,883,880,878,873,873,869,866,865,861,860,857,850,847,845,846,845,847,847,847,844,843,841,839,839,841,840,842,842,840,840,836,834,834,832,838,839,839,843,846,845,847,847,846,845,848,850,864,882,906,931,961,987,1004,1013,997,963,915,864,812,761,721,695,689,694,719,741,761,773,785,798,812,825,835,842,853,854,853,849,848,846,849,849,848,852,854,859,862,859,862,862,860,857,860,858,860,862,862,864,867,869,870,870,868,867,867,869,868,870,873,875,875,874,875,872,873,873,873,875,876,880,879,882,887,886,885,887,887,888,890,892,890,894,896,901,905,906,911,913,911,915,917,919,921,927,933,938,945,946,949,952,953,954,960,959,964,970,974,979,982,986,987,987,988,986,986,985,984,989,986,987,988,984,979,974,968,959,951,944,938,934,929,925,920,912,908,901,895,890,883,879,872,874,870,871,869,868,866,860,858,855,857,853,854,855,856,857,857,861,858,858,855,857,856,850,850,851,853,853,858,851,855,857,853,854,852,851,850,851,858,857,859,856,856,853,853,849,853,850,850,851,855,856,860,860,857,854,850,848,848,846,843,844,846,849,850,851,850,849,848,846,843,841,838,841,841,844,843,846,845,843,841,839,841,840,840,840,842,843,846,842,842,842,841,839,838,835,834,838,840,841,846,845,839,839,841,836,838,837,833,835,836,835,839,838,840,838,838,833,838,835,834,836,834,839,842,840,839,839,836,836,835,835,837,837,838,840,843,843,845,842,841,836,837,831,833,835,835,839,845,841,841,842,838,833,835,833,833,836,839,840,841,841,841,841,838,837,837,832,835,837,838,839,844,843,842,840,838,836,837,836,837,840,839,841,843,845,841,843,840,840,841,835,834,836,836,838,845,844,839,842,838,840,840,839,839,841,842,845,847,844,842,842,842,841,839,836,840,840,845,846,850,851,850,853,855,855,856,857,859,861,864,864,869,873,875,875,875,876,873,872,873,878,879,875,875,871,869,867,864,860,853,849,846,847,846,844,845,847,846,843,841,841,840,835,832,832,835,840,840,842,840,839,839,839,836,835,836,838,841,841,845,846,845,846,843,843,844,850,858,869,890,912,936,965,992,1012,1013,996,962,918,862,809,760,718,693,679,683,698,719,739,757,768,780,793,807,822,838,846,851,851,849,849,848,851,847,857,858,862,867,864,867,867,864,861,861,861,863,867,869,871,875,874,872,874,873,873,872,874,872,872,875,877,879,881,878,878,878,879,880,882,881,885,888,891,894,895,892,895,894,891,895,894,896,900,905,909,915,913,912,914,918,917,919,921,925,927,934,936,944,943,945,952,952,954,956,959,963,965,975,978,982,984,986,986,990,989,988,987,988,989,992,991,995,996,992,988,984,982,977,971,965,963,957,953,947,942,939,934,925,919,915,906,901,900,896,891,892,883,885,879,877,875,871,871,868,868,870,874,873,875,875,872,871,868,867,864,864,866,865,865,870,870,873,874,870,867,867,866,863,867,869,869,871,872,869,869,868,869,867,868,866,866,866,871,869,873,873,871,871,868,869,866,860,860,863,864,870,871,870,869,869,863,861,858,858,859,861,859,860,860,859,859,859,856,853,855,852,856,855,858,861,860,859,855,854,854,848,853,851,854,853,857,860,858,858,858,854,857,854,853,852,851,855,855,853,853,856,856,853,853,852,847,848,850,851,856,856,856,857,857,853,850,849,849,851,849,854,857,859,857,856,854,855,854,853,850,850,853,853,854,855,859,857,859,855,854,855,852,850,853,854,853,854,858,855,853,851,853,852,849,852,856,858,858,856,858,861,859,858,855,855,851,851,852,855,853,858,858,852,855,854,852,851,849,852,848,854,859,858,857,856,856,855,852,851,850,853,852,856,858,859,856,855,855,850,852,850,854,848,853,854,859,857,858,857,856,856,856,856,854,856,854,856,857,858,860,862,863,863,864,862,865,869,871,873,879,881,881,881,879,880,882,883,886,888,890,893,893,897,897,893,890,885,882,879,878,875,876,873,872,868,868,868,862,860,860,857,858,857,856,857,857,856,856,855,854,852,851,849,849,852,853,854,858,861,861,861,859,858,857,859,856,857,864,874,884,906,925,954,982,1007,1028,1030,1020,990,943,892,844,800,760,731,712,708,722,740,761,778,799,810,822,834,848,858,864,868,865,860,860,859,862,865,868,871,873,873,876,874,874,872,870,873,873,874,879,877,882,879,883,881,882,880,878,877,879,881,883,884,886,888,888,885,884,882,881,882,887,890,888,894,897,894,897,897,896,892,897,899,900,903,908,912,913,916,917,914,914,918,919,924,927,931,938,940,946,946,951,952,954,955,958,963,966,972,978,981,987,988,987,986,991,991,993,995,996,998,998,999,999,998,998,995,994,994,989,983,980,976,971,967,960,957,952,943,935,928,918,914,909,903,900,897,894,890,884,878,878,871,869,866,867,868,869,869,870,869,868,866,866,865,863,861,863,865,864,866,867,868,864,866,859,857,858,862,865,865,865,868,866,868,870,869,870,863,862,864,866,868,863,866,866,867,868,868,864,862,864,863,861,865,866,868,868,866,864,863,862,857,858,858,860,861,860,863,864,862,860,859,856,854,848,849,847,853,849,857,858,858,857,854,851,850,849,847,846,851,849,852,854,852,854,854,849,848,846,846,852,852,855,854,853,853,850,847,847,847,845,847,850,850,851,852,853,850,851,849,849,847,845,846,848,848,850,852,855,855,852,850,850,846,845,846,848,848,846,848,851,851,851,849,847,845,847,845,848,849,851,851,852,852,853,847,849,846,847,847,845,848,851,853,853,853,855,852,849,846,843,843,842,842,844,849,851,850,849,847,847,843,845,846,847,847,849,848,849,849,847,848,847,846,847,847,846,847,849,850,850,851,850,850,850,847,845,847,846,848,851,853,853,852,852,851,853,854,855,856,860,861,864,868,869,871,870,873,875,882,880,882,884,881,888,885,880,877,874,871,869,866,863,860,859,853,854,853,854,851,853,850,847,845,841,842,840,843,845,844,843,844,843,843,842,842,840,842,840,843,842,845,850,850,848,849,848,848,851,861,873,893,917,945,973,995,1008,1002,977,930,876,816,764,721,689,672,678,690,719,740,757,770,783,793,811,825,837,847,856,857,854,854,854,852,850,853,857,859,864,867,868,868,870,867,867,865,863,866,867,870,872,874,875,877,876,873,873,875,874,872,875,877,879,883,889,888,887,886,885,886,885,886,887,892,893,894,899,899,901,902,901,900,897,899,904,904,908,914,919,922,924,925,931,929,932,935,939,941,945,953,957,960,964,967,968,968,970,973,975,982,989,992,995,997,996,997,997,998,998,998,999,1001,1001,1003,999,997,992,987,980,972,967,965,959,957,950,947,942,937,929,923,915,908,903,899,894,892,885,884,883,881,879,877,874,871,870,869,871,874,873,876,871,874,873,871,867,866,864,863,865,867,869,868,875,872,872,869,869,866,866,867,866,868,869,872,871,870,873,870,869,866,866,868,870,869,873,876,875,874,867,866,864,860,864,863,863,864,868,870,870,870,866,865,867,863,862,862,862,861,861,863,862,862,860,860,858,856,856,854,855,857,858,860,859,859,859,858,857,853,852,852,854,854,856,856,858,860,860,858,857,852,849,851,851,853,852,856,858
