977,973,971,963,960,951,947,935,932,921,914,908,904,903,904,897,895,889,885,880,880,874,873,872,871,871,871,867,866,863,863,861,859,861,858,861,864,865,866,866,862,865,865,860,862,859,859,862,860,861,867,867,862,863,863,862,862,858,861,860,864,867,868,867,864,869,865,866,862,863,862,864,867,866,867,866,863,860,859,859,858,859,854,857,860,859,861,861,858,860,854,855,853,851,850,850,851,852,853,853,854,854,849,847,849,846,846,850,849,852,854,856,851,846,848,848,847,848,849,847,849,851,855,854,854,854,851,850,848,847,846,849,849,852,856,854,855,849,851,843,845,844,845,847,845,847,853,850,846,845,842,846,847,846,844,848,850,851,854,854,853,853,851,847,846,842,842,842,846,849,852,854,850,848,847,847,846,847,843,845,843,845,849,849,849,848,846,847,846,841,843,848,847,851,849,848,846,845,843,843,842,842,842,844,845,848,850,849,849,849,845,844,846,842,840,842,848,846,851,850,851,848,846,845,843,842,842,846,842,844,849,847,847,850,846,846,845,846,845,844,848,850,854,849,849,848,846,849,847,843,841,845,846,847,849,851,851,851,852,850,851,848,846,846,849,850,854,860,857,859,860,862,861,862,865,869,872,876,883,881,884,883,884,879,879,873,869,868,867,869,870,866,868,866,857,853,849,843,841,845,848,847,850,849,844,843,839,836,834,834,832,835,837,838,841,844,839,840,835,836,837,834,834,837,839,843,846,848,851,851,858,868,886,907,931,964,988,1004,998,972,927,871,813,760,716,685,673,682,702,729,752,769,785,795,805,820,831,837,843,845,847,848,850,851,853,851,853,854,852,851,851,853,854,854,855,860,863,862,862,860,860,859,857,860,862,864,867,869,869,868,870,869,868,868,866,867,869,872,876,879,880,879,878,879,880,881,882,886,889,893,896,896,900,901,901,903,905,908,911,916,920,925,929,931,937,939,941,946,947,953,954,960,964,969,975,979,974,976,976,976,975,978,980,985,988,990,993,987,984,982,979,974,968,961,956,952,948,945,939,932,930,921,910,905,897,893,882,880,877,876,874,869,867,864,863,860,856,856,854,857,860,860,860,862,859,854,856,851,851,849,844,850,853,855,858,856,856,855,854,854,852,852,853,853,855,856,857,859,857,857,857,855,853,851,853,853,857,855,856,857,854,854,853,850,849,847,846,845,848,849,853,852,851,848,849,846,843,841,842,841,843,845,848,850,848,847,845,844,844,839,838,841,840,841,843,841,843,843,838,841,837,837,835,836,834,837,835,838,837,836,834,835,831,831,832,834,836,836,840,837,837,836,835,834,836,829,833,831,835,837,838,838,838,840,836,833,828,833,830,829,831,835,836,836,834,833,834,832,832,826,827,828,831,835,834,835,836,835,835,833,833,830,831,832,835,835,836,841,840,840,835,835,834,835,833,836,837,838,836,838,835,835,836,837,837,833,836,833,838,841,844,841,845,838,838,837,837,837,837,839,841,841,843,847,845,843,842,843,843,841,841,841,842,842,843,843,844,846,844,840,838,839,842,843,841,847,844,846,844,847,846,846,846,842,842,849,852,858,861,868,865,867,866,864,863,865,869,871,879,880,881,880,881,882,873,869,868,867,867,867,869,868,867,862,859,857,852,848,843,844,843,844,845,846,846,847,840,843,838,839,839,836,841,838,842,839,843,844,843,843,843,843,842,839,843,844,846,852,858,866,881,904,927,958,990,1017,1030,1021,998,955,903,842,785,737,702,683,687,705,731,754,772,788,801,819,831,841,847,851,854,854,854,853,856,856,858,860,864,862,860,859,859,859,862,863,865,866,868,869,869,872,871,869,866,868,868,871,871,873,878,881,881,883,878,878,878,878,879,881,882,882,886,889,889,891,891,891,893,891,894,897,900,907,908,908,913,912,912,911,910,917,921,925,931,937,942,946,948,951,955,957,959,962,966,969,974,977,983,987,987,990,992,994,995,994,996,996,999,999,1000,998,996,994,988,984,979,973,967,961,960,952,949,940,936,927,921,914,904,899,895,890,890,888,884,883,881,879,876,872,870,864,864,868,863,865,865,866,866,863,863,858,860,860,858,859,859,862,864,864,864,861,860,861,859,860,859,860,864,863,865,866,865,864,862,861,858,859,858,862,864,862,867,869,868,869,865,865,861,859,859,860,861,860,864,862,854,856,858,855,853,852,849,851,855,854,855,854,854,848,849,845,843,843,845,847,848,847,853,854,853,852,849,848,845,846,846,843,843,844,849,849,850,848,848,846,848,845,846,845,849,846,851,851,849,849,848,847,844,840,839,844,845,849,846,850,850,849,848,847,845,845,842,842,846,847,847,849,852,850,851,851,848,846,844,841,846,848,851,854,852,851,848,847,844,846,844,845,847,849,849,846,845,851,847,846,841,841,839,843,846,848,852,850,851,853,848,850,847,842,847,846,849,845,850,848,846,844,845,845,845,842,844,845,846,847,850,847,846,851,846,846,845,845,844,844,846,849,850,850,851,849,851,848,845,844,841,841,845,846,849,845,848,849,848,847,845,846,845,846,850,848,849,849,847,845,842,839,843,842,844,847,846,853,854,858,859,859,861,861,862,862,865,866,867,867,872,875,882,882,883,883,881,880,878,877,880,880,878,875,874,873,872,866,859,855,852,848,847,846,847,849,844,845,846,843,840,838,834,835,839,838,839,840,840,842,841,839,838,836,836,837,841,841,844,844,844,844,844,844,844,852,864,882,906,934,965,993,1011,1013,997,958,907,849,793,742,701,689,686,700,722,748,768,784,796,808,820,832,840,846,851,850,850,849,849,851,849,850,849,854,856,860,859,861,862,862,860,860,857,855,856,857,861,863,867,869,872,871,868,866,864,862,864,865,868,872,872,876,876,878,878,879,874,876,876,879,882,879,882,888,889,885,889,886,890,892,894,894,900,906,911,915,917,919,925,925,925,928,932,934,937,942,949,956,961,962,967,968,970,972,975,977,980,983,985,987,989,991,988,985,980,984,980,981,982,977,973,968,968,956,949,941,933,924,917,911,906,905,902,898,892,889,878,871,865,863,862,860,857,855,858,855,856,856,855,853,850,850,847,849,850,851,854,853,853,853,849,847,847,845,847,846,846,851,854,855,853,852,853,847,848,849,846,848,851,850,853,852,853,854,851,848,849,846,845,846,847,849,850,850,851,842,842,843,838,838,842,842,841,843,846,841,842,841,837,837,836,834,833,834,832,837,838,835,840,841,841,835,836,833,833,832,834,835,837,838,838,837,834,830,833,833,834,835,835,836,838,836,836,836,834,830,829,829,826,827,832,830,832,834,834,834,834,832,829,829,828,828,829,831,832,837,835,835,835,833,830,828,829,828,832,833,835,836,835,834,830,829,830,828,826,829,828,831,831,837,837,838,835,831,833,824,823,827,829,832,836,836,837,835,836,834,830,831,830,826,834,832,835,834,835,833,834,834,829,831,830,833,834,835,836,838,835,833,837,833,830,830,832,832,833,834,838,834,835,835,833,833,835,832,833,832,834,833,837,837,835,837,834,833,830,829,829,830,834,835,836,839,838,840,837,836,835,834,833,836,836,841,845,850,850,852,855,854,851,854,854,856,864,867,871,871,872,874,873,872,869,866,864,862,862,862,861,863,859,854,848,842,837,834,830,830,831,835,838,840,837,841,833,831,826,826,827,826,825,831,835,837,839,838,837,837,835,834,836,835,837,842,844,845,846,852,855,868,881,899,923,953,984,1004,1014,1005,979,934,878,824,769,723,691,675,678,697,719,742,763,776,785,799,804,820,831,839,848,851,854,850,851,851,850,853,851,850,856,856,859,860,864,869,865,866,867,866,866,865,863,864,865,870,871,873,874,875,875,877,873,874,875,877,877,877,882,882,881,882,884,885,885,886,885,885,888,890,895,896,897,900,899,901,900,901,899,904,908,912,915,920,923,928,928,932,933,933,938,942,947,951,957,961,962,967,967,968,969,971,972,977,980,984,987,992,992,992,990,988,985,984,982,984,979,979,981,978,974,972,963,958,948,941,934,928,924,920,917,911,908,904,897,889,885,880,878,877,877,876,873,876,872,871,868,862,864,859,860,860,863,863,866,867,867,866,867,863,859,858,856,858,861,864,864,866,869,869,866,864,864,861,860,863,865,867,867,869,867,870,866,865,864,865,863,862,864,864,863,869,866,864,866,863,859,858,855,856,859,860,862,862,859,859,858,854,854,851,851,849,853,852,855,854,852,854,851,853,849,850,848,848,847,848,853,855,857,852,849,849,848,849,846,844,849,852,852,854,852,851,850,845,849,849,845,845,848,846,851,855,854,853,852,851,850,849,849,849,851,849,852,851,852,848,848,846,845,847,843,845,845,849,847,853,854,850,854,849,850,846,844,845,849,848,849,851,849,852,850,848,846,847,845,849,850,848,851,852,852,850,851,849,846,849,847,847,848,851,853,852,850,849,845,846,846,846,844,846,849,847,848,856,852,853,852,849,849,845,846,846,847,848,848,851,852,851,851,846,848,847,847,847,850,852,852,854,854,853,848,848,851,849,850,850,852,853,856,857,859,854,855,852,853,852,852,853,857,862,863,870,872,871,871,870,869,871,873,877,883,885,890,892,890,889,885,884,879,876,872,873,874,873,874,872,865,863,860,856,852,851,850,851,851,850,852,851,851,850,850,848,846,842,840,844,844,846,847,847,846,849,845,843,845,844,843,844,848,852,860,869,883,895,919,942,968,992,1006,1009,995,963,916,867,814,769,733,710,700,712,729,751,771,789,801,812,826,837,847,855,858,858,858,853,853,854,860,862,862,865,865,865,861,863,859,862,865,867,870,873,870,870,869,871,871,870,869,866,870,873,877,877,877,879,880,879,879,878,878,879,878,882,886,886,886,887,889,887,887,889,891,892,892,900,900,903,905,907,907,907,908,910,910,913,917,923,929,935,940,940,944,946,949,952,952,957,962,967,973,978,979,982,979,983,983,984,983,986,984,984,988,989,984,982,978,971,967,962,955,947,945,941,935,933,925,919,915,905,898,895,889,885,881,877,875,874,874,873,869,869,865,862,859,858,859,858,860,862,858,859,859,855,857,855,854,856,854,855,857,857,856,859,859,859,854,851,852,853,854,855,856,861,859,860,859,856,855,853,853,853,856,856,856,855,858,855,853,853,852,852,852,850,852,852,854,856,853,851,852,849,844,843,846,845,845,847,852,849,850,849,848,846,841,842,840,840,839,842,842,847,842,845,844,842,841,838,836,836,838,840,841,843,841,839,837,836,837,835,834,835,835,836,839,844,840,842,840,833,836,834,831,828,831,833,836,837,837,837,831,835,837,837,833,831,833,836,839,838,839,837,836,835,836,834,835,834,835,838,838,841,836,837,836,833,832,830,833,834,834,837,838,837,839,836,838,832,837,832,831,831,831,834,837,837,841,841,839,835,834,833,832,834,835,836,837,839,836,837,839,835,832,830,832,833,836,836,838,839,843,840,838,837,834,832,834,832,833,836,840,841,842,838,840,841,836,832,830,832,836,838,840,841,841,837,835,836,840,841,838,841,844,846,853,855,853,853,853,857,853,852,854,862,865,869,873,877,877,872,873,869,867,864,860,857,856,856,853,856,853,849,843,842,839,839,839,835,837,840,842,841,840,837,832,834,831,826,827,831,831,832,833,835,836,835,835,833,834,834,834,836,836,839,842,844,848,858,870,884,901,920,943,967,987,993,983,951,907,855,804,756,714,685,675,677,695,717,742,758,769,779,794,804,816,828,836,842,842,845,845,847,843,845,846,850,851,850,848,853,852,855,858,858,861,860,859,858,855,858,857,859,860,865,866,869,869,870,867,868,869,865,866,867,869,872,871,876,874,876,875,876,880,877,872,878,880,882,884,887,889,889,888,889,889,893,892,895,896,901,904,909,911,914,918,919,920,921,922,925,932,935,938,942,945,949,953,954,955,957,960,962,967,968,972,975,976,974,974,972,968,971,967,967,968,967,964,965,962,956,952,942,939,933,925,917,912,911,906,908,901,898,892,887,880,878,873,870,871,870,870,869,865,865,863,862,861,857,857,856,857,855,858,864,863,863,860,860,858,858,855,855,857,858,861,861,864,864,862,861,859,859,855,853,860,858,864,862,864,864,861,860,858,857,858,856,856,859,862,861,862,863,862,858,859,855,851,849,854,854,854,857,859,857,856,854,847,849,847,848,850,852,852,850,851,850,851,849,847,845,847,847,847,847,846,847,848,849,849,848,843,841,842,842,846,846,849,848,850,847,846,845,843,844,844,842,844,845,846,847,848,844,848,845,845,843,844,846,845,848,850,846,850,849,844,847,842,844,843,843,843,846,845,847,848,851,849,847,843,840,840,841,845,846,844,849,852,852,851,849,847,846,844,845,847,846,846,848,848,845,847,847,845,844,841,845,844,848,849,850,851,850,849,848,845,841,842,842,843,847,848,850,850,850,850,847,845,843,843,844,845,845,845,848,847,846,845,846,843,843,846,846,847,846,849,848,850,850,849,847,844,840,841,845,846,847,849,853,853,852,850,848,848,848,849,851,854,859,861,865,866,871,867,864,865,866,871,875,878,881,880,884,882,882,881,873,869,866,868,865,864,865,866,864,861,857,852,849,846,844,842,842,844,841,846,846,847,844,845,843,842,839,837,836,839,841,842,846,847,845,845,842,843,843,842,845,849,853,860,870,886,902,924,945,971,993,1002,1000,990,954,916,875,829,784,746,719,707,711,719,743,765,781,797,806,819,827,839,846,854,853,850,853,853,855,858,859,859,858,859,859,863,859,862,862,865,867,868,870,872,868,872,870,869,865,865,867,870,870,873,877,876,878,879,876,876,877,877,876,877,879,885,885,885,888,885,883,885,881,885,886,889,895,894,898,900,904,907,908,907,907,907,909,912,919,920,927,932,933,936,936,940,941,946,947,954,958,961,965,971,972,972,973,973,974,977,976,981,985,985,987,987,987,985,979,975,973,971,968,962,958,956,953,947,939,936,929,923,914,906,898,896,894,891,887,884,879,879,875,869,865,862,861,863,863,864,865,866,863,864,859,855,856,853,855,858,863,859,861,862,861,860,862,858,856,857,857,856,857,857,856,861,862,864,862,860,858,856,856,856,860,858,864,861,863,861,856,857,854,856,855,857,856,858,858,858,860,858,857,852,848,850,845,849,850,854,853,855,854,855,851,847,848,847,846,846,846,848,846,847,848,846,845,844,843,843,842,843,845,845,848,852,852,849,847,846,845,840,842,841,841,845,843,848,848,845,846,845,842,841,839,841,843,843,844,844,846,844,842,840,839,839,839,839,840,843,843,846,846,845,843,843,840,839,839,840,841,842,844,845,847,846,843,840,840,838,836,839,839,840,842,844,841,844,842,841,837,836,839,840,837,840,843,842,841,839,841,839,840,839,841,842,843,846,847,845,844,844,841,837,837,834,836,836,840,840,843,845,847,844,844,842,841,839,837,837,842,846,845,848,846,845,844,843,839,839,840,840,843,847,848,848,846,848,845,843,842,840,840,845,848,850,853,855,856,855,857,856,857,857,852,857,856,864,869,873,879,879,877,875,873,871,867,866,863,861,864,863,860,857,853,853,847,845,840,839,839,841,844,844,844,840,838,834,833,832,831,832,836,837,840,841,839,840,836,834,836,833,832,836,839,839,844,846,850,855,862,876,891,915,940,964,990,997,989,960,919,868,816,768,727,696,681,683,698,721,744,762,777,792,798,810,820,824,833,839,843,844,843,848,848,847,850,848,850,851,853,851,851,855,857,860,860,859,859,856,856,858,858,859,862,862,865,868,867,864,863,861,860,860,863,861,865,869,872,873,878,875,877,876,872,877,876,879,878,883,883,886,888,889,890,888,893,891,894,898,902,909,911,915,921,923,926,924,926,928,932,936,944,947,954,957,956,959,960,962,961,964,967,970,975,975,980,978,981,980,981,979,975,973,973,967,968,965,963,958,953,945,937,932,922,918,913,906,903,900,895,895,888,883,883,874,871,866,867,864,867,862,864,862,861,857,857,855,854,853,852,852,852,852,855,857,856,854,854,850,851,847,848,849,851,848,851,856,858,855,856,854,853,851,852,850,851,851,854,856,858,857,854,853,854,851,853
