965,965,966,967,963,965,968,969,968,969,971,974,978,980,985,990,992,989,984,973,970,971,969,967,967,967,969,973,971,970,966,960,961,960,954,951,955,960,966,971,965,960,952,952,954,958,961,961,957,960,961,965,961,955,957,960,966,973,973,972,968,967,967,965,959,956,959,970,990,1019,1046,1071,1085,1102,1118,1134,1133,1121,1100,1075,1041,992,928,871,839,841,856,879,894,908,922,934,944,948,948,954,954,956,962,968,971,972,972,974,972,979,981,980,977,983,986,986,985,988,988,991,1000,1004,1004,1000,997,992,995,1002,1008,1008,1008,1011,1014,1020,1023,1028,1029,1034,1036,1034,1034,1029,1025,1026,1030,1036,1035,1034,1031,1033,1036,1037,1033,1031,1027,1025,1027,1027,1031,1028,1026,1022,1018,1016,1011,1008,1006,1005,1008,1007,1002,992,986,984,985,991,991,986,981,975,974,974,974,976,972,968,969,970,967,969,970,972,972,974,972,966,968,975,984,990,991,987,981,979,984,995,1001,998,993,992,995,998,990,984,979,979,978,980,979,978,982,986,992,991,985,978,970,968,971,973,970,970,972,973,975,976,977,973,971,974,978,980,975,967,957,954,960,968,970,967,962,960,962,964,970,970,964,960,958,962,968,979,995,1020,1057,1094,1116,1120,1108,1083,1064,1035,978,913,856,831,842,874,897,910,925,935,946,955,961,962,961,966,973,980,983,981,980,982,978,982,984,988,990,989,986,987,988,992,994,998,1001,1003,1001,998,1000,1004,1017,1025,1026,1026,1027,1031,1039,1046,1048,1049,1049,1052,1053,1051,1048,1045,1047,1051,1055,1056,1059,1051,1049,1049,1047,1047,1043,1038,1032,1025,1023,1026,1024,1015,1003,995,993,996,993,987,980,977,982,986,985,976,968,971,974,976,975,975,973,972,976,975,972,970,970,968,967,968,966,966,967,971,973,976,976,977,976,977,981,979,982,985,988,989,988,988,990,988,984,981,983,983,981,978,976,978,978,975,970,967,966,969,974,975,972,967,963,966,969,973,974,970,963,956,957,960,965,965,965,962,960,960,960,960,959,962,967,971,963,959,960,964,964,968,967,971,971,970,962,958,953,954,958,970,978,992,1012,1036,1060,1091,1118,1138,1147,1142,1118,1090,1064,1027,973,918,867,840,840,859,878,894,909,929,942,953,956,957,962,967,971,969,962,961,968,973,980,977,975,974,977,981,989,994,992,992,992,996,999,995,996,995,1000,1006,1017,1028,1037,1030,1017,1011,1015,1027,1030,1032,1031,1035,1040,1048,1048,1047,1044,1043,1048,1051,1050,1048,1045,1049,1052,1057,1055,1051,1045,1042,1044,1046,1043,1037,1033,1028,1025,1024,1022,1013,1006,1001,1002,1000,993,981,972,974,984,988,983,977,973,973,973,974,971,968,965,966,974,977,976,972,971,971,976,976,975,974,973,972,976,977,973,968,966,973,981,980,974,970,972,978,987,993,1003,1004,1010,1005,996,983,968,965,966,968,973,973,970,970,967,973,977,980,973,965,960,958,962,964,960,957,953,953,963,968,969,966,963,963,961,963,967,965,963,961,959,960,958,956,954,955,956,963,961,959,959,957,957,956,954,952,961,981,1010,1038,1063,1090,1115,1130,1136,1122,1093,1048,987,922,866,835,829,839,856,876,893,911,932,945,956,971,980,979,971,962,955,957,965,975,978,976,968,964,969,975,979,981,982,987,994,999,1009,1007,998,996,997,992,991,993,999,1007,1013,1017,1018,1020,1028,1036,1041,1045,1043,1038,1035,1037,1040,1047,1045,1042,1042,1046,1049,1050,1050,1044,1038,1037,1034,1040,1039,1034,1024,1022,1019,1015,1007,995,989,994,1002,1007,996,982,976,977,978,976,967,958,955,961,971,974,967,956,951,953,959,966,967,966,960,958,962,963,967,967,967,965,965,965,968,967,964,967,967,974,978,980,979,975,975,984,992,991,980,979,978,983,983,977,968,960,960,960,960,962,959,960,966,968,967,964,959,954,955,962,965,960,954,954,960,964,959,951,949,954,961,964,961,957,959,960,961,963,959,955,954,959,965,967,968,964,955,949,953,957,955,948,946,953,970,992,1011,1032,1056,1079,1097,1115,1122,1111,1091,1064,1026,976,926,876,841,829,840,864,883,896,908,926,942,952,954,954,951,956,962,969,972,973,978,983,987,982,973,969,966,969,976,982,985,985,983,988,994,997,1001,1009,1009,1008,1006,1009,1012,1013,1014,1014,1021,1031,1038,1041,1042,1042,1042,1044,1044,1041,1042,1045,1053,1051,1049,1048,1050,1052,1053,1049,1051,1047,1043,1042,1037,1036,1033,1032,1029,1022,1018,1013,1005,996,992,990,994,992,994,991,990,988,984,976,971,969,968,973,977,981,985,983,976,967,966,967,970,968,965,967,972,975,971,968,964,964,970,978,976,976,980,982,986,989,992,990,986,981,984,989,989,987,989,997,1000,996,986,978,974,973,976,974,973,974,978,981,984,978,967,965,968,975,977,979,972,969,965,967,966,969,974,972,968,967,976,985,979,970,967,971,975,975,970,965,961,962,966,972,975,974,972,969,965,959,956,957,960,964,973,997,1016,1040,1060,1087,1112,1130,1142,1138,1123,1103,1072,1026,967,911,868,844,843,864,887,903,918,936,956,966,968,966,962,963,968,973,974,974,973,980,987,994,996,990,981,978,978,984,985,988,990,992,998,1005,1007,1009,1012,1013,1015,1017,1018,1019,1021,1024,1029,1039,1047,1052,1047,1044,1046,1049,1052,1057,1060,1058,1056,1057,1056,1059,1063,1067,1068,1066,1061,1054,1050,1051,1048,1049,1042,1039,1036,1036,1035,1033,1027,1019,1011,1004,1004,1006,1003,999,995,996,998,996,989,982,978,974,974,975,979,980,980,987,989,991,983,973,962,965,971,973,976,972,967,968,971,974,976,975,977,983,991,996,993,988,981,976,971,969,971,975,983,992,1000,1003,1001,995,984,980,979,983,988,991,987,979,977,975,973,971,969,972,979,982,977,972,970,974,983,984,984,979,974,972,976,977,976,973,971,972,971,971,974,972,970,972,975,978,980,978,975,980,983,987,982,974,970,967,966,965,964,967,967,965,963,965,969,976,991,1013,1044,1066,1088,1112,1141,1161,1172,1177,1168,1149,1125,1090,1038,978,917,870,845,847,866,891,911,927,937,949,966,975,980,979,979,978,982,984,985,985,982,986,987,987,989,990,986,982,984,988,994,996,994,995,999,1008,1013,1011,1010,1009,1015,1023,1029,1040,1040,1039,1034,1031,1034,1038,1037,1043,1052,1058,1062,1065,1068,1067,1064,1059,1055,1052,1051,1057,1067,1069,1065,1061,1056,1055,1059,1065,1066,1058,1042,1032,1025,1026,1023,1023,1016,1008,1004,1001,1000,1000,1003,1005,1005,1000,995,989,984,978,982,983,985,981,978,982,987,992,988,980,976,977,984,986,979,972,970,976,982,983,978,976,977,984,989,995,996,994,994,993,994,999,1007,1010,1002,992,987,990,990,986,980,979,979,979,977,975,975,975,978,978,977,972,977,980,987,987,979,972,971,972,973,976,975,975,973,975,974,976,977,976,978,985,987,982,972,963,965,967,974,978,977,969,964,966,972,974,974,972,971,980,992,1006,1023,1042,1070,1109,1142,1163,1162,1141,1111,1070,1009,938,879,852,859,882,900,915,934,949,962,969,977,990,997,996,989,982,975,970,963,963,976,990,998,997,996,996,998,1005,1007,1004,998,998,1004,1009,1008,1014,1022,1027,1027,1021,1021,1025,1031,1033,1034,1039,1044,1052,1054,1055,1056,1061,1065,1073,1071,1072,1072,1071,1069,1060,1054,1055,1056,1059,1061,1063,1055,1044,1037,1032,1029,1025,1019,1010,1009,1004,1002,1004,994,985,982,986,985,982,977,975,980,984,990,993,988,979,971,973,974,975,973,972,975,981,988,989,987,982,977,977,979,980,977,977,979,984,990,995,997,993,990,994,1001,1003,1001,993,985,983,983,981,977,971,972,976,979,981,978,974,972,974,979,982,982,976,972,970,967,965,964,963,964,966,971,973,974,972,973,971,973,973,970,969,970,977,984,984,975,962,960,965,972,976,974,965,957,953,960,977,998,1026,1047,1075,1112,1139,1156,1159,1148,1124,1097,1062,1009,949,892,847,834,850,874,896,912,933,953,968,969,967,965,972,977,981,979,973,968,967,976,986,986,982,981,994,1001,1000,994,983,982,987,1000,1010,1012,1009,1008,1010,1019,1026,1029,1035,1039,1046,1050,1054,1051,1046,1042,1041,1050,1056,1057,1057,1057,1064,1072,1069,1057,1050,1049,1056,1056,1060,1060,1053,1046,1036,1032,1028,1024,1023,1024,1016,1006,1000,993,988,985,988,986,990,987,982,981,981,983,985,986,986,986,989,990,990,984,975,972,976,980,981,978,972,969,974,984,989,988,983,978,977,987,994,998,993,997,1004,1005,1002,994,983,971,969,975,983,983,978,975,977,978,983,982,975,972,973,977,980,978,975,973,972,967,969,966,959,961,970,979,980,973,965,960,964,967,974,974,971,965,964,970,972,970,970,972,973,972,967,958,957,964,982,1009,1041,1078,1114,1138,1149,1141,1115,1079,1024,960,899,856,849,863,877,890,909,937,953,957,963,965,970,974,978,974,970,969,977,989,997,1001,995,983,975,977,986,989,986,986,994,1004,1009,1011,1012,1011,1010,1020,1032,1038,1035,1030,1031,1036,1043,1046,1046,1047,1052,1056,1059,1058,1060,1060,1066,1068,1070,1066,1061,1056,1048,1044,1043,1042,1034,1029,1029,1027,1029,1028,1025,1022,1014,1007,995,984,980,977,980,979,985,985,988,987,982,983,981,981,978,984,987,987,983,974,971,973,981,987,994,987,974,970,981,993,999,996,986,980,979,982,988,991,991,997,999,1002,998,990,980,979,985,987,986,983,980,979,980,986,984,984,979,972,970,974,980,985,982,970,963,966,969,973,973,975,976,975,974,975,973,974,976,983,986,989,984,976,972,971,975,977,975,973,971,970,970,976,992,1011,1033,1057,1085,1112,1137,1151,1152,1133,1099,1040,973,911,869,854,868,891,911,923,939,955,967,973,973,975,982,990,993,990,989,986,991,993,992,991,992,996,999,1004,1007,1005,1006,1008,1012,1019,1023,1023,1023,1027,1030,1033,1038,1042,1045,1048,1052,1054,1057,1057,1061,1061,1066,1072,1075,1074,1070,1069,1071,1073,1075,1074,1071,1068,1067,1065,1066,1063,1057,1052,1046,1045,1039,1033,1026,1021,1018,1017,1017,1016,1011,1004,1001,1001,1005,1001,998,992,991,995,998,994,992,987,990,995,995,990,989,988,993,994,994,996,992,989,988,996,999,998,996,997,1000,1004,1008,1013,1009,1010,1010,1014,1013,1008,1006,1003,1004,1001,997,994,995,996,994,998,996,994,992,991,993,995,997,991,987,984,985,988,991,993,989,984,988,991,994,992,991,987,987,990,990,990,991,991,989,991,993,994,990,983,981,983,988,997,1009,1037,1075,1111,1144,1166,1182,1187,1167,1128,1067,991,918,869,866,896,927,943,953,964,973,986,992,994,989,992,1000,1008,1007,1003,1004,1008,1012,1018,1018,1017,1014,1014,1015,1017,1024,1030,1032,1035,1036,1039,1042,1044,1044,1047,1050,1055,1063,1067,1065,1063,1069,1077,1081,1084,1079,1085,1086,1090,1092,1091,1090,1086,1088,1087,1088,1090,1089,1081,1076,1076,1076,1071,1063,1056,1054,1053,1052,1048,1041,1035,1031,1028,1023,1022,1016,1016,1021,1026,1024,1023,1020,1016,1016,1020,1019,1018,1017,1019,1026,1030,1028,1023,1016,1015,1018,1023,1029,1029,1029,1029,1027,1032,1038,1039,1037,1031,1034,1038,1040,1041,1044,1047,1047,1046,1040,1035,1032,1034,1036,1036,1034,1025,1024,1028,1034,1039,1037,1032,1023,1016,1013,1014,1020,1024,1020,1019,1016,1019,1023,1020,1016,1019,1018,1022,1026,1023,1019,1018,1020,1028,1029,1026,1023,1022,1027,1033,1031,1029,1025,1026,1024,1021,1017,1019,1019,1022,1037,1062,1091,1121,1153,1186,1214,1238,1247,1236,1209,1173,1119,1053,988,932,907,912,934,958,978,993,1006,1013,1021,1029,1031,1035,1033,1035,1041,1042,1042,1042,1040,1035,1038,1042,1050,1052,1052,1052,1050,1053,1053,1055,1054,1054,1062,1067,1074,1079,1077,1076,1080,1087,1091,1091,1093,1096,1101,1106,1111,1108,1107,1111,1116,1120,1117,1115,1112,1112,1110,1112,1111,1107,1100,1099,1095,1097,1093,1089,1081,1073,1067,1066,1064,1058,1051,1044,1042,1040,1045,1043,1034,1028,1027,1026,1027,1024,1020,1016,1018,1020,1022,1020,1019,1016,1015,1017,1017,1015,1010,1008,1012,1017,1020,1021,1018,1018,1023,1030,1029,1028,1025,1023,1024,1029,1035,1034,1027,1021,1018,1020,1023,1018,1016,1011,1014,1019,1020,1016,1012,1008,1003,1005,1007,1007,1003,1001,1003,1006,1006,1003,1000,1001,1006,1011,1011,1012,1010,1006,1004,1005,1003,1002,1004,1002,1003,1006,1006,1006,1008,1010,1012,1009,1006,1001,993,994,1007,1032,1065,1094,1122,1149,1178,1205,1218,1208,1178,1134,1072,1001,935,889,873,891,913,938,956,971,982,991,1000,1007,1008,1005,999,1001,1009,1016,1018,1017,1016,1016,1020,1023,1025,1025,1024,1027,1031,1034,1036,1033,1031,1033,1038,1044,1050,1055,1055,1059,1060,1062,1065,1063,1065,1070,1075,1078,1077,1078,1080,1083,1090,1095,1091,1088,1088,1087,1093,1099,1099,1094,1087,1081,1080,1082,1083,1077,1070,1061,1056,1060,1059,1055,1048,1040,1034,1028,1028,1025,1019,1016,1013,1016,1012,1012,1010,1009,1010,1013,1016,1013,1004,1002,1006,1008,1010,1006,1001,1003,1002,1007,1009,1006,1002,999,1000,1006,1007,1013,1014,1013,1016,1020,1024,1023,1021,1021,1028,1033,1031,1025,1015,1010,1006,1007,1011,1008,1003,1001,1001,1005,1004,1006,1004,1005,1006,1004,998,994,990,988,987,989,994,992,995,997,999,1001,999,998,992,989,987,991,996,996,996,997,999,998,1001,998,992,992,993,995,997,996,994,992,993,993,991,989,989,992,999,1013,1037,1059,1085,1106,1135,1156,1171,1177,1166,1143,1118,1077,1024,960,905,874,864,883,904,923,936,950,965,979,986,992,994,996,999,1004,1010,1011,1015,1014,1011,1008,1008,1009,1009,1013,1017,1020,1025,1024,1023,1025,1028,1033,1035,1033,1032,1034,1036,1042,1045,1044,1045,1051,1061,1070,1073,1074,1072,1074,1079,1086,1090,1089,1085,1085,1085,1087,1086,1091,1087,1088,1085,1086,1085,1086,1086,1084,1079,1076,1072,1066,1059,1053,1052,1054,1052,1045,1033,1027,1027,1031,1027,1025,1019,1014,1013,1016,1019,1019,1017,1012,1011,1012,1014,1015,1015,1011,1009,1008,1012,1015,1016,1014,1009,1011,1010,1010,1008,1005,1009,1014,1021,1023,1021,1021,1023,1026,1027,1026,1025,1027,1030,1032,1031,1032,1028,1025,1023,1024,1027,1024,1022,1018,1017,1014,1010,1010,1011,1014,1017,1016,1011,1006,997,997,1000,1002,1003,1003,1004,1004,1002,1004,1005,1008,1007,1006,1005,1007,1006,1003,1000,1002,1004,1003,1005,1006,1004,999,1003,1005,1009,1010,1013,1009,1004,1003,1002,996,991,990,995,1008,1028,1046,1070,1092,1118,1148,1169,1185,1196,1180,1149,1101,1036,970,918,890,880,896,917,935,946,962,977,990,998,1005,1007,1010,1013,1015,1010,1007,1003,1005,1011,1022,1027,1029,1028,1025,1026,1031,1033,1033,1030,1032,1032,1034,1033,1033,1034,1037,1044,1051,1056,1056,1058,1056,1057,1064,1069,1069,1075,1079,1086,1091,1094,1093,1093,1093,1093,1095,1089,1088,1085,1086,1092,1099,1097,1097,1093,1088,1088,1093,1093,1092,1088,1084,1083,1081,1076,1065,1057,1051,1045,1045,1046,1044,1043,1041,1037,1032,1027,1023,1019,1014,1014,1020,1023,1022,1020,1021,1022,1022,1023,1018,1014,1010,1013,1018,1018,1017,1012,1007,1011,1012,1018,1019,1018,1019,1021,1024,1024,1023,1020,1016,1019,1022,1026,1026,1026,1029,1030,1034,1034,1028,1022,1020,1020,1020,1018,1014,1011,1007,1006,1008,1005,1005,1006,1010,1015,1012,1007,996,994,996,1000,1002,1002,1000,997,993,993,998,1003,1006,1002,1000,1001,1002,1003,1000,998,995,995,999,1000,998,999,997,999,1002,999,997,995,994,995,995,997,989,980,970,968,975,987,1001,1024,1041,1065,1095,1126,1153,1169,1181,1173,1147,1097,1033,972,920,882,867,870,879,893,907,928,945,961,968,974,975,983,986,988,986,985,990,992,995,996,995,987,984,988,993,993,994,994,997,1000,1003,1001,1006,1004,1001,1002,1005,1009,1011,1014,1014,1021,1028,1033,1032,1033,1035,1039,1043,1044,1043,1042,1043,1047,1051,1053,1057,1055,1055,1055,1055,1056,1056,1053,1049,1045,1043,1040,1036,1034,1031,1028,1027,1027,1019,1011,1003,999,998,995,992,984,980,978,979,977,973,969,968,968,969,971,968,963,960,959,961,962,963,959,957,956,960,960,960,958,955,955,960,961,960,959,959,957,961,962,961,960,961,964,975,981,981,976,974,975,978,978,973,967,963,962,964,964,963,960,956,954,956,961,959,958,953,951,952,952,952,948,947,947,952,954,953,952,950,954,957,953,953,954,953,952,955,956,951,949,947,950,956,957,953,950,951,954,955,956,951,949,942,938,934,938,948,965,990,1021,1047,1070,1103,1132,1152,1177,1199,1207,1195,1170,1125,1059,981,909,855,837,845,863,886,906,917,931,938,943,946,948,949,947,951,953,959,961,960,959,957,958,958,959,956,955,962,967,973,976,971,970,968,975,984,993,993,993,989,993,999,998,1000,1002,1007,1011,1018,1022,1022,1023,1021,1024,1030,1031,1031,1032,1033,1037,1041,1040,1038,1030,1031,1027,1029,1029,1023,1020,1015,1014,1011,1005,997,989,985,986,985,983,975,968,955,958,960,960,956,952,947,948,953,954,952,949,946,946,950,949,947,941,935,937,941,944,944,945,942,948,950,953,953,954,955,957,956,959,960,960,959,959,962,964,962,959,957,958,960,958,960,950,948,948,946,948,946,943,944,947,950,948,944,939,937,935,935,935,936,934,935,936,940,939,939,935,932,938,942,945,940,935,931,934,936,940,939,940,937,938,940,942,945,944,942,942,941,937,931,921,919,926,945,969,999,1025,1051,1088,1124,1154,1174,1188,1183,1164,1132,1073,994,918,860,829,826,838,856,874,894,910,926,931,934,934,933,935,939,939,941,938,939,940,946,952,949,949,948,952,953,951,953,954,955,958,960,965,970,971,976,977,981,979,984,985,985,995,1001,1007,1009,1009,1011,1012,1016,1020,1023,1024,1027,1030,1032,1031,1026,1022
