894,893,895,896,897,892,884,878,869,864,859,856,853,853,854,854,855,855,854,852,851,846,846,846,847,847,845,847,850,853,849,847,850,846,847,847,847,846,847,849,850,852,850,852,852,851,849,848,848,849,852,857,860,864,865,869,870,872,873,889,919,964,1019,1074,1132,1191,1255,1301,1319,1296,1230,1127,999,871,752,686,675,697,735,776,802,820,830,834,839,843,848,853,853,858,857,854,852,854,852,853,853,854,854,857,861,861,861,860,861,858,856,854,857,857,859,862,865,866,866,864,862,861,860,856,855,855,859,861,864,866,865,866,864,864,863,862,864,865,866,870,871,871,875,876,874,871,869,867,869,870,874,877,884,884,885,887,890,889,891,893,896,897,898,906,912,916,920,924,928,930,931,934,937,941,945,949,953,959,958,959,958,961,964,963,963,961,961,960,959,957,953,947,941,934,930,922,919,911,911,907,902,899,895,891,887,885,882,878,874,872,873,872,872,875,874,875,873,868,867,864,864,864,865,869,866,869,869,868,866,863,861,862,860,862,863,864,867,867,867,865,866,864,860,859,859,861,864,866,870,872,869,872,872,867,870,865,866,869,870,868,871,876,877,875,875,874,874,871,870,871,870,873,874,875,873,875,871,868,866,866,865,865,866,866,871,872,870,869,867,865,860,858,858,859,861,862,867,865,868,864,860,860,858,858,858,860,860,864,863,863,863,862,859,857,856,857,853,856,856,858,857,859,856,858,859,853,853,854,854,854,853,856,858,860,859,860,855,853,853,850,851,852,853,852,852,854,852,849,853,849,849,851,850,854,853,855,857,857,857,857,854,850,852,852,853,852,851,854,855,857,857,855,855,853,851,850,852,852,852,857,859,858,857,860,856,856,853,852,851,854,853,851,854,858,858,855,855,853,851,846,849,850,854,854,855,858,859,859,856,853,852,853,852,851,854,853,859,860,856,859,857,854,855,855,854,854,855,856,855,860,863,859,860,856,855,855,854,854,857,859,861,861,863,859,860,856,854,856,855,854,852,856,861,863,861,860,859,860,858,857,856,854,859,860,861,864,866,865,865,865,865,868,870,877,880,882,882,885,886,887,890,890,892,896,896,896,898,896,896,894,892,894,888,885,882,880,880,880,879,878,875,874,868,864,856,851,848,847,844,845,841,841,843,841,847,845,843,844,840,839,835,836,842,845,846,847,849,848,847,846,845,843,842,841,845,846,850,852,851,850,852,852,851,851,854,856,862,864,874,886,907,944,990,1040,1092,1146,1203,1261,1305,1331,1319,1265,1169,1049,921,800,719,690,701,738,780,816,835,839,835,828,831,830,836,839,841,846,847,847,846,846,844,843,841,841,842,841,841,842,844,847,848,848,847,848,848,845,843,844,843,843,844,845,845,849,849,848,848,847,845,842,843,841,844,848,849,848,852,850,851,850,848,850,848,850,847,852,856,859,859,859,857,856,854,855,856,858,861,866,871,870,873,876,877,878,878,881,881,883,888,894,899,902,905,911,913,915,916,921,921,925,929,935,941,944,947,950,952,953,954,952,952,951,956,955,953,953,949,945,939,932,928,921,917,916,909,906,902,897,894,889,887,881,875,871,869,867,864,867,868,868,869,866,864,860,858,857,858,858,859,858,862,861,864,862,862,859,856,853,855,855,856,857,860,861,860,863,859,860,855,854,851,853,857,858,860,865,863,865,864,860,859,858,858,858,858,859,861,862,864,865,863,858,855,855,854,858,858,861,862,860,860,861,863,857,859,858,856,855,858,859,859,861,860,859,857,856,853,852,852,851,854,854,854,857,856,855,855,854,849,850,849,849,847,852,852,856,856,854,854,849,849,848,848,846,848,847,850,850,851,852,848,846,845,846,845,842,844,845,850,852,851,850,850,847,845,844,841,844,841,844,849,848,850,851,846,844,842,842,843,839,842,844,850,850,849,849,847,843,842,843,842,842,845,846,846,847,850,850,849,847,843,841,845,842,844,846,848,850,847,848,848,845,846,840,841,844,845,848,848,853,852,851,851,847,847,845,841,842,843,848,848,850,851,852,846,847,846,846,846,847,848,849,852,852,850,853,850,848,847,845,847,848,850,849,850,851,854,853,853,849,849,850,847,849,846,850,850,850,850,850,854,852,848,849,846,845,846,849,853,858,860,863,864,865,866,866,870,871,873,876,876,879,881,889,894,898,899,899,896,892,890,887,886,888,886,884,882,880,877,873,867,859,854,853,849,850,845,848,845,843,841,839,836,836,839,841,844,847,844,840,841,840,838,836,838,838,841,843,843,846,847,843,844,844,843,844,841,845,843,846,849,853,856,857,857,858,858,856,860,869,888,922,967,1021,1075,1131,1193,1248,1283,1285,1250,1175,1074,959,849,760,707,701,714,749,777,798,812,814,820,827,833,845,852,854,854,851,846,843,844,845,845,848,848,853,855,856,854,852,849,847,846,848,848,849,853,854,854,853,850,847,844,848,847,848,846,849,852,858,859,860,858,857,853,854,849,852,855,857,856,859,860,860,861,859,857,852,861,860,862,864,870,874,875,877,878,876,879,878,880,883,885,889,896,904,905,909,908,907,910,913,916,919,923,927,935,938,942,945,944,948,948,948,952,955,956,959,957,958,961,955,954,947,946,941,938,931,929,925,922,923,917,909,905,902,892,888,881,880,880,876,874,873,873,877,877,874,870,865,865,864,868,866,867,867,866,869,868,869,866,862,861,860,863,865,867,869,866,869,867,865,861,865,862,861,864,866,867,873,873,871,873,869,868,867,866,866,866,869,876,879,880,881,879,878,873,871,872,872,877,874,879,879,878,879,882,877,877,875,876,870,874,873,875,875,873,874,873,871,872,871,870,868,870,870,871,872,873,871,868,868,866,867,867,865,865,867,867,869,869,868,867,866,864,862,862,861,864,865,864,865,867,870,868,867,863,862,861,860,858,864,864,866,866,865,864,860,860,855,857,858,862,864,864,867,868,867,865,864,862,860,863,864,863,863,864,867,866,868,866,863,863,863,861,859,859,861,865,864,865,866,867,865,862,862,859,862,863,863,866,868,870,867,868,866,867,866,865,864,864,865,866,868,867,868,869,868,867,866,861,861,866,865,869,871,871,872,868,866,864,866,865,864,864,863,868,872,873,877,877,871,869,874,873,876,878,884,887,892,894,891,893,892,896,900,903,910,915,915,917,915,914,914,908,906,902,902,901,899,896,898,899,891,886,881,873,867,866,863,861,861,856,857,859,857,860,858,857,857,858,857,855,855,856,857,856,861,862,860,861,858,857,856,855,854,852,857,857,862,863,862,862,862,863,862,861,859,861,865,871,871,877,879,880,883,891,908,939,984,1033,1088,1139,1195,1252,1297,1319,1306,1259,1178,1072,952,836,749,699,693,713,752,784,807,816,821,821,826,834,840,853,862,864,868,863,858,858,850,852,855,856,858,862,865,866,868,868,867,865,860,860,861,860,860,864,864,868,868,865,863,862,860,862,860,862,861,864,866,868,863,864,863,862,860,863,863,860,861,866,865,868,869,871,869,865,864,865,863,866,869,873,876,875,879,883,883,881,883,883,887,887,891,896,896,898,902,905,907,909,910,911,913,918,921,927,933,936,938,942,942,945,946,947,949,952,956,959,963,966,967,966,962,962,956,955,951,950,946,945,941,937,935,928,920,912,906,903,897,894,888,889,887,887,883,883,877,876,876,873,870,870,868,871,874,872,873,875,869,865,864,863,860,861,860,863,864,868,867,869,867,860,861,862,860,861,866,866,868,870,870,871,870,867,865,864,865,865,864,867,871,875,874,872,871,872,872,871,870,872,875,877,877,878,878,878,876,874,872,874,873,873,872,877,874,876,875,877,874,871,871,866,864,866,868,870,870,872,873,870,867,864,862,861,859,859,863,866,863,864,864,866,866,862,861,858,860,858,859,860,865,866,865,865,865,859,858,857,856,856,856,861,860,861,861,859,860,857,857,856,853,855,856,857,860,860,860,858,857,856,853,853,852,851,855,858,858,857,859,859,856,854,856,851,851,853,853,853,854,859,858,859,854,852,851,851,850,849,854,854,852,856,858,856,855,852,851,850,851,849,852,854,856,858,857,856,851,851,847,851,849,853,853,853,852,857,857,857,856,854,850,850,851,850,853,856,854,859,858,860,857,856,853,852,853,854,852,854,857,860,859,857,851,853,848,847,848,848,851,852,853,857,857,858,854,854,852,850,850,850,850,855,856,856,859,855,855,850,848,850,850,850,853,853,854,858,856,856,852,853,852,853,851,851,853,852,853,857,856,856,857,856,853,852,851,854,850,853,857,856,858,858,855,854,854,851,849,850,853,854,857,858,860,861,862,861,861,860,864,865,872,878,880,884,885,884,883,884,885,888,892,899,900,899,897,896,891,890,887,883,883,883,878,879,877,878,874,874,867,861,855,847,846,838,842,837,838,842,842,843,843,844,842,841,842,836,835,836,838,842,845,846,845,847,846,843,841,838,841,840,841,843,846,849,847,848,848,848,846,848,847,850,851,862,870,883,911,952,1003,1060,1122,1183,1248,1298,1320,1296,1236,1136,1008,880,770,703,689,711,754,798,824,835,835,833,829,828,834,836,841,844,846,841,843,844,845,845,845,846,845,843,844,840,840,841,843,843,845,847,848,849,847,842,840,839,839,839,843,843,849,852,850,849,848,846,844,843,839,840,843,843,846,850,851,849,844,844,842,844,845,845,847,851,855,856,858,858,855,857,858,858,860,860,863,866,871,874,876,879,881,880,882,882,888,887,893,899,903,909,913,915,917,918,920,923,925,929,932,936,940,947,948,953,953,951,950,948,947,945,943,945,940,938,935,932,928,919,912,907,903,899,892,888,885,885,881,877,875,870,864,861,858,853,855,857,856,859,861,858,853,853,850,848,847,847,850,852,850,854,855,856,854,854,849,850,851,849,851,851,853,854,855,854,856,847,850,849,849,847,850,852,852,856,854,855,855,853,851,851,851,849,851,853,851,856,858,856,854,850,850,847,848,847,848,852,850,851,851,850,851,848,847,846,841,841,841,841,843,845,848,845,843,839,836,839,837,836,836,838,841,842,841,840,841,837,836,835,836,836,834,835,839,842,842,842,842,836,835,833,830,830,831,831,834,837,841,841,840,838,832,831,832,831,831,836,837,839,841,839,838,834,835,833,835,829,834,834,838,838,835,839,836,835,835,831,830,831,832,832,833,836,838,839,837,835,833,834,832,831,834,837,839,840,841,839,838,837,834,836,833,834,832,835,838,841,841,839,838,834,829,832,827,832,832,833,838,839,840,842,838,837,834,836,833,831,834,837,833,836,837,835,837,835,835,833,830,834,834,838,839,839,839,840,842,835,830,836,832,834,836,836,838,838,838,836,836,835,834,833,833,832,833,834,838,840,837,840,842,839,838,835,835,834,832,838,843,847,849,853,854,857,857,856,857,857,860,863,866,871,874,882,884,883,883,880,872,873,876,872,871,871,869,871,868,865,860,855,849,849,840,835,838,834,831,831,829,827,823,823,823,822,821,821,825,822,824,824,822,822,821,821,819,821,821,823,824,825,824,825,826,824,822,825,823,823,821,825,825,828,830,835,835,835,836,837,836,840,841,854,874,906,955,1006,1056,1109,1163,1218,1252,1264,1234,1170,1078,966,857,763,699,680,691,721,749,775,787,794,794,802,809,814,824,830,831,832,830,824,823,822,823,827,830,830,834,832,831,828,828,830,829,828,832,835,834,834,834,832,829,830,827,828,829,830,831,834,837,836,835,835,831,833,832,830,834,834,836,838,841,842,841,842,840,836,838,838,838,841,843,843,847,851,852,852,849,849,849,849,851,855,858,864,865,870,875,877,879,877,880,882,885,890,896,904,909,911,912,916,916,915,921,920,926,926,930,935,936,936,937,936,931,928,924,921,919,916,913,911,907,902,900,892,886,880,877,869,865,863,857,859,860,854,855,851,849,845,841,842,843,845,845,850,850,847,845,843,839,838,839,839,838,839,841,843,842,844,843,843,839,840,837,834,835,837,842,844,846,847,849,845,844,840,840,841,841,845,849,851,851,853,853,851,847,847,847,844,845,848,848,851,851,851,848,847,848,846,845,845,845,848,849,847,848,850,852,849,846,845,842,842,843,842,844,846,847,847,845,843,840,840,841,839,838,838,839,842,841,841,842,839,838,836,835,838,840,839,838,842,840,843,840,837,834,834,834,834,835,836,839,839,841,837,840,839,836,836,835,832,835,833,836,839,840,840,839,837,834,832,832,833,835,835,839,840,841,840,842,839,836,835,834,835,834,834,836,837,840,838,839,834,833,831,832,835,835,838,838,840,843,840,840,838,838,835,834,833,833,835,837,839,841,842,843,840,838,837,838,837,837,837,837,842,843,844,840,841,840,839,839,837,837,836,841,839,843,844,842,843,841,842,837,838,846,848,852,854,858,864,863,863,863,861,863,867,873,879,885,886,885,887,884,879,876,873,870,872,873,873,874,870,866,858,851,842,838,836,834,833,833,832,832,830,831,832,832,831,827,827,826,823,825,825,827,826,830,826,828,827,827,826,824,825,829,831,832,834,834,837,833,837,833,830,832,834,834,840,840,844,849,850,853,861,873,906,950,1005,1062,1122,1188,1245,1285,1289,1249,1165,1055,927,799,708,659,655,679,718,757,780,796,802,803,809,811,820,823,830,834,835,835,834,836,834,831,829,829,829,830,830,835,836,838,838,838,835,833,833,832,829,829,834,832,834,839,840,837,837,835,833,829,830,833,834,836,836,839,837,839,839,836,835,833,834,837,838,841,844,847,846,847,848,846,845,847,848,848,852,854,856,862,862,866,866,866,867,870,870,877,881,882,886,891,893,896,902,901,900,897,905,908,912,919,921,925,927,929,931,930,930,923,929,928,930,929,926,928,925,922,917,913,904,899,894,892,888,884,882,879,874,870,868,865,860,858,855,853,851,853,852,852,851,852,852,842,842,839,841,841,844,845,848,851,849,849,846,844,841,841,840,840,844,845,846,850,848,850,848,845,843,839,840,844,845,846,849,853,851,852,851,848,847,846,850,848,849,852,854,855,854,856,854,854,851,849,847,847,851,854,854,853,852,851,848,847,846,845,841,844,846,847,848,849,850,851,847,846,846,843,841,841,842,842,846,846,846,845,845,842,839,837,836,835,838,839,838,838,838,839,840,837,834,835,835,832,835,836,833,836,836,834,833,831,831,829,829,830,826,829,830,834,835,836,836,833,831,829,828,828,829,831,831,833,834,833,830,832,829,827,829,826,829,831,833,834,831,834,835,831,829,828,825,827,824,828,832,835,837,834,834,831,831,830,829,831,831,833,835,837,837,836,836,832,830,832,832,831,833,833,835,836,838,838,833,832,830,829,828,825,830,835,837,836,836,837,836,835,832,833,830,830,834,835,838,837,838,834,832,832,832,833,831,832,833,835,836,838,836,839,838,838,834,830,831,830,831,832,835,837,839,839,836,834,833,833,833,832,834,836,838,841,838,839,844,842,841,843,843,845,850,856,860,864,866,862,866,867,868,872,873,875,880,882,881,880,879,877,874,867,869,865,861,862,857,854,856,860,854,847,841,836,830,828,826,826,822,821,823,825,826,826,825,820,821,818,819,819,819,821,824,825,825,824,824,823,822,819,819,821,824,826,826,825,826,825,829,830,828,829,827,828,832,836,839,844,848,852,861,875,899,942,992,1040,1099,1154,1213,1262,1289,1284,1240,1162,1053,931,810,723,678,683,714,763,800,821,828,822,813,809,812,815,820,826,830,833,831,830,830,826,826,823,822,824,826,830,829,831,833,831,830,829,826,826,825,821,824,825,828,828,830,831,830,829,826,827,824,826,828,830,831,832,833,836,836,835,831,831,831,832,835,836,835,836,840,840,840,840,837,841,840,840,841,844,851,854,855,856,855,856,855,859,858,860,867,867,874,879,880,883,886,889,889,892,892,896,900,908,911,914,915,920,923,923,924,928,926,927,932,932,935,936,934,934,929,927,920,915,909,903,899,898,897,892,888,884,876,866,862,860,854,854,851,853,851,853,850,850,845,843,843,839,837,836,842,841,841,843,843,845,841,838,838,835,834,834,834,837,839,840,841,841,839,841,839,837,837,836,835,839,841,842,845,843,842,841,840,840,840,837,841,838,846,845,844,842,842,842,839,838,837,836,836,838,839,843,844,844,842,837
