869,865,859,855,849,846,842,847,850,850,853,853,851,847,841,842,843,842,841,845,844,847,849,849,847,845,846,846,844,841,841,845,847,850,851,853,851,851,850,847,848,846,847,849,850,848,852,856,856,856,855,854,851,851,850,851,858,858,860,858,860,859,857,852,856,854,853,854,854,856,858,857,858,857,851,848,845,844,845,847,852,851,852,853,855,850,849,846,843,842,842,845,846,847,848,847,851,844,844,845,844,839,838,843,841,842,843,845,846,846,845,838,840,838,840,838,839,841,842,842,842,841,842,840,840,837,837,839,842,843,847,845,847,843,840,838,837,838,832,837,842,841,840,844,846,845,843,841,838,837,834,839,840,843,842,843,846,844,843,837,838,838,839,839,837,840,842,843,843,846,843,841,839,840,840,843,845,844,847,852,859,861,861,863,864,864,864,867,871,876,884,885,888,884,880,875,868,867,865,865,865,868,873,873,872,867,858,852,844,840,834,834,836,836,838,838,838,832,830,828,828,827,827,828,831,835,836,836,837,836,834,835,831,831,829,832,835,835,838,841,845,846,843,840,840,840,841,844,844,849,853,855,857,859,858,854,864,876,903,944,997,1056,1118,1181,1245,1299,1329,1320,1266,1172,1050,922,797,719,687,691,725,761,793,812,818,822,825,829,839,846,852,858,859,856,853,849,848,848,849,848,851,854,856,859,856,855,856,851,845,843,847,850,849,850,850,853,856,858,857,854,854,851,851,854,852,855,858,858,860,857,860,856,856,855,855,856,861,864,865,869,871,871,871,868,869,869,867,871,874,881,883,888,892,894,894,895,894,899,904,910,913,917,919,923,928,931,932,938,936,937,941,946,950,952,960,964,964,966,964,963,963,960,957,955,954,950,946,942,937,933,927,917,913,907,901,896,893,889,890,887,885,881,877,874,871,870,867,869,868,867,869,868,869,870,865,862,861,859,858,860,859,861,863,867,868,865,863,863,863,859,859,861,861,865,867,869,868,868,866,867,866,865,863,862,862,866,868,870,871,869,867,869,869,867,867,866,869,869,869,874,870,869,872,869,865,864,863,867,867,867,866,870,872,870,864,867,863,858,855,856,862,863,859,863,865,866,865,862,860,859,857,856,857,858,858,861,859,861,860,858,856,856,855,854,855,857,860,858,857,858,856,854,854,851,851,850,852,855,856,860,858,857,858,853,853,851,849,852,854,853,852,856,856,854,852,850,846,847,843,849,848,856,851,855,855,856,852,850,847,845,844,844,842,851,853,855,853,853,849,851,849,846,849,849,851,852,854,852,850,850,849,850,849,847,850,850,849,851,852,854,856,852,853,851,849,849,846,847,845,848,852,855,850,851,850,849,846,842,842,845,847,850,852,853,851,851,850,847,846,846,846,846,849,850,854,855,856,855,855,852,847,845,845,847,852,853,854,857,855,857,855,856,852,855,859,862,868,872,879,881,884,887,882,883,881,882,884,887,889,889,887,888,885,882,881,878,874,873,873,872,873,873,871,868,863,860,852,845,844,843,838,838,841,841,843,845,841,839,840,839,836,833,836,834,837,840,843,846,844,845,844,843,842,842,841,838,845,846,851,853,853,854,853,853,852,853,853,860,866,879,895,930,978,1032,1088,1142,1198,1253,1293,1302,1275,1206,1097,969,841,747,702,705,735,774,811,835,838,842,839,841,842,845,848,850,848,846,844,844,846,847,851,852,856,854,855,851,850,847,847,846,850,850,851,853,852,852,849,847,849,848,847,850,848,851,853,854,857,856,855,851,852,850,851,849,852,857,859,862,861,861,861,856,857,857,856,856,860,865,867,872,871,873,874,877,875,877,878,881,884,886,895,899,902,906,909,910,910,914,916,921,924,927,932,941,943,947,947,949,950,953,952,954,959,963,965,968,966,965,959,958,952,946,941,935,934,931,930,928,919,917,909,902,896,892,885,886,883,882,883,881,878,876,873,870,868,865,865,863,864,868,867,868,869,869,867,864,863,860,861,856,861,863,865,865,865,866,864,863,863,860,859,859,859,862,866,865,867,866,865,864,860,862,859,862,861,862,865,866,865,867,863,862,859,858,856,858,858,860,863,863,858,859,860,859,856,855,855,854,855,859,859,859,858,857,858,853,852,847,847,846,847,850,852,853,854,853,851,851,848,848,847,844,846,850,847,849,851,847,848,848,847,844,841,841,840,844,846,845,847,846,844,842,836,835,838,838,842,841,840,841,842,844,844,844,839,838,836,837,838,840,844,842,845,843,840,838,838,837,838,837,839,839,842,842,843,842,843,840,841,840,839,836,838,841,843,844,844,844,843,837,839,838,837,834,836,840,841,842,841,842,840,840,838,838,834,834,836,838,840,846,847,845,842,837,835,837,837,834,840,840,840,843,842,841,840,839,839,836,838,837,838,840,842,845,844,845,846,843,843,841,841,845,848,850,856,856,862,865,864,865,865,865,865,867,872,875,883,886,885,882,876,873,870,866,866,865,867,869,874,871,866,865,858,850,843,838,836,836,836,841,839,837,835,835,832,831,831,830,829,830,833,834,835,835,834,835,835,832,831,832,831,832,837,837,842,844,842,844,843,840,839,842,844,845,847,849,854,857,862,865,876,898,935,983,1037,1095,1155,1219,1271,1297,1278,1217,1116,994,868,762,695,672,687,720,758,782,801,810,813,818,820,829,836,841,843,845,847,848,848,849,845,845,844,845,844,843,843,843,842,848,849,850,849,848,847,845,845,843,847,846,848,853,854,852,854,849,846,849,844,845,846,849,850,857,855,853,853,851,848,842,845,845,851,854,855,859,861,858,861,860,860,857,856,858,859,864,867,872,873,877,878,880,879,881,883,888,893,899,903,907,912,914,917,917,922,924,924,926,932,939,942,945,947,950,950,947,949,947,949,948,947,948,949,947,945,939,930,924,917,914,909,904,899,897,894,892,889,885,884,879,878,874,871,866,867,867,871,872,870,866,864,866,860,860,859,856,860,864,864,867,866,864,866,862,861,862,861,860,861,862,863,866,867,867,867,863,862,860,864,865,869,869,873,872,874,872,870,873,871,870,868,869,868,872,875,880,878,882,878,876,872,874,868,868,870,872,873,879,877,877,877,873,872,871,871,872,871,868,871,871,873,875,874,873,867,869,869,867,866,866,871,874,875,872,872,871,868,870,868,871,868,868,870,871,873,873,872,869,869,867,864,867,865,868,871,870,874,874,872,870,867,863,867,867,865,866,869,869,875,876,876,870,867,866,865,865,862,865,864,870,872,873,871,869,868,867,865,866,868,869,869,872,870,874,872,872,871,868,865,863,866,869,871,875,874,874,875,875,875,878,880,881,888,894,898,899,900,901,904,902,903,903,906,905,905,906,909,906,907,906,901,899,897,895,898,893,896,894,888,885,884,878,874,872,870,867,865,864,864,863,867,868,869,870,869,867,861,861,861,863,864,865,866,868,865,864,866,869,865,863,866,865,868,869,873,873,876,874,873,872,871,871,873,877,881,884,889,893,899,906,927,958,1000,1050,1101,1162,1223,1282,1326,1348,1331,1274,1180,1062,939,826,746,709,708,736,771,802,825,837,843,844,851,857,866,871,875,877,879,883,879,876,877,876,876,875,873,874,877,880,884,882,882,883,881,879,875,875,872,871,872,876,882,879,882,882,881,879,876,877,874,874,876,878,880,883,883,884,882,878,876,874,873,871,880,879,881,886,887,887,887,887,886,888,888,888,894,897,901,905,907,910,910,909,908,911,913,914,920,926,931,933,938,942,944,946,949,949,953,956,961,965,970,975,980,981,984,984,984,981,980,975,976,976,976,972,970,964,960,950,945,934,930,928,922,920,919,914,914,909,906,899,892,890,886,883,882,885,884,883,885,885,887,884,878,877,877,876,874,875,874,876,880,881,879,879,872,871,871,870,871,871,876,879,878,880,879,879,876,875,877,870,874,876,878,880,882,883,881,880,880,877,875,874,875,877,881,881,882,882,882,882,879,879,879,881,879,882,881,880,881,881,880,879,876,875,872,872,873,873,875,877,877,876,876,873,866,864,864,863,864,865,867,869,869,870,872,868,866,863,861,863,864,866,866,866,868,867,868,866,863,861,861,861,864,862,865,865,868,867,867,864,862,861,862,858,862,865,865,865,866,866,865,864,861,861,863,860,860,861,860,862,863,866,865,864,859,860,860,861,862,862,867,870,873,874,878,881,879,880,880,883,886,887,888,897,902,903,904,901,896,895,889,887,886,886,886,885,890,889,887,883,877,871,865,858,853,853,854,855,855,854,850,845,843,845,845,847,853,857,854,853,849,845,843,844,841,843,845,844,847,848,850,852,856,857,856,856,852,853,857,860,864,863,862,862,866,871,875,884,896,926,963,1013,1070,1125,1183,1242,1290,1315,1305,1256,1174,1068,950,843,757,710,699,720,752,784,810,821,823,826,831,837,847,863,870,868,861,862,856,854,848,846,847,847,849,847,854,856,857,859,859,858,857,857,852,856,857,859,860,859,858,857,857,859,859,860,857,861,861,863,861,861,854,851,853,857,855,856,854,856,859,862,861,866,869,872,874,875,874,875,874,872,870,869,870,871,880,885,892,894,896,896,893,896,897,897,907,913,922,925,928,928,931,931,932,934,940,948,956,962,966,969,970,970,972,967,964,965,964,964,964,963,959,955,949,943,933,927,922,916,910,911,906,901,899,893,890,883,880,874,872,871,869,870,871,871,867,867,863,859,858,858,858,858,859,859,862,862,861,860,858,859,856,854,850,848,847,846,849,848,847,848,852,851,848,845,843,845,841,847,845,852,852,856,860,858,857,857,854,853,855,856,857,856,858,859,858,858,856,850,853,852,852,850,853,856,856,857,857,856,852,851,848,849,848,847,848,850,854,853,853,846,847,845,843,843,842,844,846,847,848,847,846,843,837,838,839,842,842,845,848,847,849,847,846,844,842,846,844,844,841,841,839,840,840,841,840,838,834,832,832,834,839,847,850,853,851,846,846,849,848,853,853,852,850,856,854,855,859,866,863,865,868,871,877,885,889,896,894,891,883,877,874,872,867,864,863,864,866,866,865,860,857,851,845,841,833,831,827,833,833,835,834,833,833,830,832,832,831,826,827,825,824,827,831,837,841,839,838,833,829,827,826,826,828,831,838,841,845,849,849,847,846,842,842,842,842,846,854,863,882,919,964,1014,1064,1121,1179,1242,1290,1308,1280,1209,1102,974,846,736,675,657,674,712,754,784,800,799,800,803,813,827,843,851,857,854,850,847,850,848,844,841,839,839,843,844,845,845,844,848,849,851,852,854,850,848,844,839,837,840,847,854,861,866,862,858,852,847,843,845,842,844,845,849,852,850,853,852,852,850,849,845,846,844,847,849,850,857,856,857,858,858,857,855,854,854,854,860,863,866,870,873,875,872,873,875,877,878,878,886,893,901,905,903,906,907,907,906,908,907,915,921,923,929,931,931,931,935,941,942,941,938,933,933,930,929,927,921,917,909,906,899,893,890,885,878,879,874,873,869,867,867,861,855,848,843,840,845,845,849,849,848,846,844,842,844,842,839,837,831,833,836,834,839,841,841,842,839,836,834,833,832,836,840,842,844,842,844,842,837,834,833,836,838,841,842,843,845,846,841,842,843,841,839,838,839,842,847,847,849,850,851,846,843,843,842,841,839,835,841,844,846,847,848,842,840,839,837,835,836,835,836,841,839,839,834,833,831,828,830,833,833,834,833,836,835,835,836,829,829,826,826,824,825,826,828,831,832,828,829,826,824,823,818,817,817,822,822,824,823,822,822,820,819,817,817,815,820,818,821,823,822,821,823,820,819,816,818,818,821,821,825,825,829,833,836,837,837,837,839,842,841,847,853,856,857,855,858,857,850,845,842,841,840,841,838,839,843,842,840,836,830,825,816,813,809,810,811,812,811,808,806,804,800,800,798,797,798,801,803,803,806,806,807,804,801,800,799,800,803,805,807,810,812,810,813,810,808,809,807,809,815,817,820,824,828,828,834,842,858,890,940,999,1060,1127,1198,1252,1277,1254,1179,1067,939,811,697,645,644,677,724,762,785,794,795,794,792,797,800,806,811,814,815,813,814,812,809,808,808,810,807,806,811,809,811,816,817,817,818,813,812,810,808,807,809,811,811,812,811,814,812,810,808,806,804,807,807,810,814,816,816,819,818,814,813,810,813,811,814,816,819,824,823,826,827,827,828,828,830,833,835,841,841,845,849,854,854,855,855,861,867,869,875,882,889,892,895,900,904,904,907,913,914,918,920,925,928,930,932,931,932,930,928,925,922,919,914,912,911,904,900,892,889,883,877,874,869,862,861,856,855,852,846,848,846,847,844,840,837,834,832,829,830,833,834,835,836,831,831,830,826,827,830,833,831,830,832,831,829,826,824,824,824,824,825,825,827,832,831,829,833,830,830,827,827,826,825,824,829,829,834,833,834,832,830,826,823,826,828,826,826,828,830,830,827,825,827,827,828,826,829,829,831,833,832,835,834,831,827,825,828,824,826,827,828,830,830,832,826,824,822,822,816,817,821,822,821,822,824,824,826,826,821,821,817,816,817,820,822,826,825,824,822,819,818,818,816,817,817,818,817,820,823,821,823,819,819,817,816,816,816,815,818,821,822,821,827,826,821,819,815,817,822,825,830,836,841,844,844,845,846,844,844,847,847,859,861,866,864,860,856,850,850,843,838,839,835,838,840,840,841,838,835,829,823,818,814,815,816,813,812,811,815,811,813,811,808,809,808,807,808,810,813,813,816,816,817,818,814,813,810,815,817,821,823,822,825,825,821,821,822,820,823,826,829,830,834,835,838,836,847,859,883,922,969,1020,1074,1130,1198,1257,1288,1282,1232,1146,1030,902,786,699,657,655,685,721,755,771,785,794,799,802,812,818,826,828,829,830,831,828,829,830,828,829,827,829,829,829,832,834,834,830,833,834,832,833,832,831,834,837,841,840,838,838,838,836,834,832,832,832,836,840,841,840,843,842,841,840,836,835,838,840,843,847,849,851,854,855,856,857,856,856,856,855,858,861,864,873,877,880,884,887,890,891,894,898,901,908,913,918,923,923,923,927,928,931,934,937,938,945,947,950,953,952,951,946,942,940,937,933,929,928,919,915,913,908,903,897,885,883,876,871,863,866,866,865,864,865,864,860,859,855,855,849,846,849,851,852,854,856,857,858,856,852,849,847,846,850,852,855,856,854,856,854,853,851,850,847,848,847,852,852,854,857,857,858,860,858,858,860,858,858,861,861,866,868,868,869,867,867,862,860,861,858,861,869,870,871,872,870,866,862,858,862,861,865,865,871,867,867,867,867,865,863,863,863,859,858,861,864,865,866,865,862,863,856,855,853,852,853,857,859,858,859,860,859,855,856,852,853,850,853,854,857,858,859,859,860,855,855,854,852,855,856,858,860,863,866,871,873,873,876,876,874,876,875,885,889,892,892,890,890,888,880,876,874,875,873,876,874,877,877,874,869,865,860,852,848,844,841,837,840,842,844,843,840,835,834,831,829,833,833,835,832,834,831,832,836,833,832,834,831,831,834,832,835,837,838,838,837,834,835,835,835,833,840,842,845,847,848,851,850,848,849,855,868,894,940,991,1041,1101,1159,1216,1272,1308,1309,1279,1211,1116,994,868,763,695,671,677,708,744,770,789,796,802,804,815,820,831,836,840,840,838,836,831,828,829,833,836,835,836,838,833,836,835,833,833,832,833,831,833,838,840,841,839,837,834,832,833,831,832,834,833,835,837,841,836,835,835,833,838,834,833,836,836,839,840,844,844,843,842,842,842,841,844,847,850,851,856,856,856,856,857,857,859,860,861,866,871,874,879,881,885,889,890,893,893,897,900,904,911,919,921,927,932,931,932,933,935,939,938,939,939,947,947,945,939,935,931,926,920,913,908,903,901,897,893,890,883,878,874,867,859,859,855,854,855,854,855,854,851,849,845,843,841,838,838,840,842,844,846,847,844,844,842,838,837,837,835,836,837,839,843,844,842,841,839,837,835,833,836,840,837,843,846,847,847,846,842,843,843,844,845,845,848,848,852,850,849,847,850,845,843,841,842,845,847,849,852,851,851,847,846,846,841,843,843,843,844,844,847,846,848,847,842,838,840,838,839,835,840,844,846,842,840,840,838,837,836,837,839,837,839,837,841,840,841,841,840,837,834,834,830,830,836,839,841,843,843,840,838,837,836,834,835,837,837
