816,817,818,816,824,825,824,822,818,816,820,819,818,817,816,818,824,824,823,822,816,816,818,819,819,818,819,824,828,831,828,822,821,823,826,825,825,820,824,827,831,837,836,835,833,828,829,830,832,831,832,834,840,843,844,840,837,832,835,839,838,838,840,841,845,843,842,838,835,832,838,841,844,842,842,840,839,837,835,831,830,830,833,835,838,838,838,836,844,846,844,842,833,829,827,826,828,831,830,834,838,836,839,835,829,821,826,827,829,830,827,826,834,833,833,828,827,822,824,828,832,831,828,832,834,835,835,831,834,835,836,838,842,841,842,844,850,852,854,854,859,865,873,873,875,874,872,875,879,882,882,878,878,873,874,872,868,866,868,870,874,872,864,856,849,849,850,847,843,841,842,843,846,842,833,829,823,825,831,830,829,824,828,830,838,832,829,816,807,796,787,789,792,804,819,843,885,926,963,998,1029,1060,1092,1118,1134,1142,1146,1145,1143,1134,1111,1077,1024,962,905,859,837,827,831,843,857,863,867,856,841,834,823,821,819,813,812,815,818,819,820,812,815,811,815,813,818,820,820,822,824,826,826,825,820,821,820,822,827,824,824,823,824,824,825,824,822,818,818,816,824,827,826,827,826,826,827,832,831,829,824,825,823,827,830,832,832,831,832,833,832,824,823,822,827,831,837,838,839,837,836,837,840,838,837,834,836,840,838,838,836,836,837,838,838,835,832,828,829,835,835,836,835,836,831,831,834,835,830,826,825,831,832,838,836,834,834,832,830,835,829,826,826,825,827,829,833,830,827,821,821,823,826,821,820,820,822,825,827,826,823,816,811,813,819,816,818,819,821,826,828,830,829,826,818,817,816,817,819,820,819,823,828,828,830,829,830,827,826,830,831,832,833,833,839,844,850,854,849,848,848,851,857,864,865,869,870,869,869,871,868,862,855,852,853,854,859,859,858,857,854,853,848,843,836,830,827,829,832,834,831,823,823,821,820,820,818,816,815,818,824,827,826,822,816,811,807,805,797,788,778,779,790,809,835,871,910,952,995,1032,1065,1094,1119,1135,1145,1149,1144,1135,1122,1104,1073,1034,978,914,865,832,818,821,834,848,854,854,851,844,834,822,813,804,805,813,814,817,812,809,808,811,813,814,816,819,820,823,824,825,816,813,810,809,812,811,813,810,811,814,818,819,817,812,809,811,815,816,819,816,812,816,815,816,816,819,816,819,820,822,823,820,822,826,831,835,831,830,828,830,832,833,835,834,834,835,839,843,844,840,834,833,835,839,842,838,840,840,844,845,848,843,837,834,835,834,837,836,834,833,834,838,836,834,829,826,828,830,833,834,831,832,829,828,832,830,828,823,823,826,827,833,831,831,830,831,834,833,827,826,824,825,822,820,817,820,823,823,822,822,816,817,820,820,819,819,821,823,827,830,829,827,822,824,823,822,822,821,823,830,833,832,834,836,839,838,841,838,836,836,841,849,853,858,858,859,858,865,868,863,861,861,864,867,873,872,867,860,861,859,855,856,856,854,852,854,852,849,841,833,828,824,822,819,819,818,821,824,822,823,820,819,819,817,818,817,812,806,805,798,789,779,774,782,796,828,862,902,942,981,1025,1064,1093,1120,1138,1145,1147,1140,1136,1121,1104,1081,1044,990,928,873,831,814,813,820,831,837,835,829,827,820,813,800,800,799,801,802,802,799,796,796,800,805,807,809,807,806,806,808,803,805,804,802,805,808,809,808,803,806,805,806,801,800,800,805,808,811,813,811,806,811,810,808,806,802,802,805,807,815,817,815,813,818,817,817,817,812,812,814,817,824,824,824,819,820,822,823,822,819,816,822,823,828,829,833,827,826,824,820,823,826,822,823,824,825,827,829,825,825,822,822,822,821,815,817,818,818,824,825,822,817,816,817,817,815,811,812,816,819,821,822,819,812,812,813,812,811,808,806,802,808,811,814,808,804,799,799,804,804,800,799,799,804,807,810,807,800,797,798,799,802,799,798,800,801,807,810,814,809,807,808,810,812,810,812,810,810,818,824,830,833,833,838,840,841,847,843,842,842,841,849,851,850,849,846,845,840,836,831,828,830,828,827,825,815,812,807,808,806,802,795,793,795,800,805,800,799,795,798,798,802,800,795,794,794,794,795,790,778,769,754,748,755,764,789,819,860,901,946,986,1022,1052,1079,1108,1128,1141,1145,1142,1134,1124,1111,1090,1054,1003,936,878,831,808,801,804,815,822,830,827,823,812,796,785,782,783,784,783,785,784,791,790,792,790,788,784,786,786,788,789,788,789,792,793,794,789,786,782,783,785,788,789,791,788,792,795,796,791,791,790,793,794,794,792,791,791,795,799,801,799,792,789,784,791,793,795,798,798,802,806,807,805,798,796,796,797,804,805,804,805,810,814,809,805,800,803,808,812,813,811,811,813,816,815,813,808,807,810,808,808,804,802,804,807,815,817,810,805,808,806,810,807,803,800,803,808,813,808,805,802,799,805,807,802,801,802,804,807,812,809,802,801,797,795,794,791,793,793,799,800,806,801,798,798,800,805,807,803,802,801,807,813,816,817,815,820,823,832,836,841,841,845,847,847,848,846,849,851,850,849,846,837,837,838,841,843,843,840,837,837,832,826,820,814,810,812,814,821,821,823,816,811,805,797,792,790,794,802,811,816,819,813,807,799,787,774,763,761,771,798,832,863,900,938,972,1014,1051,1084,1105,1115,1123,1120,1111,1091,1065,1021,967,902,846,809,795,801,818,835,843,839,833,822,810,801,791,788,796,800,808,807,804,804,810,814,818,817,810,811,806,805,805,803,804,806,812,817,821,816,816,811,813,815,814,809,810,811,817,823,824,820,814,814,814,820,821,824,822,824,825,830,832,829,825,822,822,827,827,829,832,832,833,841,841,834,829,824,824,825,827,825,828,833,839,843,845,842,835,829,827,826,833,833,839,835,833,835,833,830,830,827,822,821,817,821,823,827,828,829,832,833,833,827,820,820,821,826,831,832,832,830,831,830,822,821,816,817,824,829,834,830,826,823,824,824,824,824,821,817,820,821,828,829,827,825,822,825,821,821,816,813,818,824,830,834,834,832,831,831,831,832,830,831,834,838,845,846,851,848,848,852,855,858,858,861,863,866,870,871,871,867,864,868,865,868,865,857,853,849,849,852,855,860,855,849,848,845,841,835,828,822,826,830,832,832,827,820,817,821,821,820,822,823,825,823,828,827,822,809,797,788,784,783,791,809,836,869,917,959,992,1023,1052,1074,1098,1113,1120,1114,1108,1103,1099,1088,1064,1024,976,917,863,826,809,805,817,834,846,852,842,832,814,812,806,806,802,803,803,804,808,809,810,808,804,804,806,812,811,807,804,807,808,812,813,810,808,806,807,806,806,807,809,815,815,816,813,809,804,806,806,809,809,812,812,816,820,819,817,812,812,811,813,810,814,813,819,823,826,826,822,816,816,817,820,818,817,818,821,824,829,826,826,824,822,828,828,823,824,822,824,826,824,822,820,819,817,818,820,815,814,814,814,818,822,823,822,820,813,814,815,817,814,813,814,817,820,821,817,811,813,812,813,810,807,807,810,811,811,808,808,806,804,804,801,801,796,802,807,807,807,802,802,804,802,804,801,800,799,807,808,810,808,810,808,808,811,806,805,804,808,813,815,818,820,820,821,821,825,820,821,822,825,833,844,847,847,850,850,853,851,848,845,842,847,851,847,847,844,841,837,841,839,830,824,819,816,812,811,807,807,806,809,806,799,797,796,796,801,802,802,803,801,804,805,803,799,789,777,768,762,767,775,796,823,855,897,938,975,1008,1041,1069,1099,1115,1123,1124,1117,1114,1103,1089,1069,1030,976,915,858,818,799,793,798,815,825,828,820,809,799,794,792,792,794,792,791,793,791,795,791,789,786,789,793,796,796,796,796,801,799,799,796,793,794,793,794,795,797,798,798,802,801,803,800,796,796,798,800,805,805,802,802,809,809,806,804,802,804,804,810,813,809,809,809,811,814,818,816,813,811,807,811,816,815,813,813,817,819,822,821,819,815,815,818,817,819,816,816,819,818,822,818,811,808,807,808,810,811,810,813,814,817,818,812,810,809,809,811,813,813,812,814,814,815,815,810,805,805,807,809,809,808,803,802,804,805,805,802,802,800,803,801,800,797,793,792,792,794,801,796,797,796,795,795,802,806,808,808,811,813,814,811,810,808,813,816,820,821,825,825,822,829,835,842,841,842,844,849,855,858,857,853,850,852,854,852,842,838,837,840,847,844,841,837,836,832,826,829,823,818,816,813,817,819,816,814,814,810,810,813,812,809,808,807,808,811,807,807,799,793,787,779,774,772,777,790,818,856,898,937,979,1010,1045,1077,1105,1125,1138,1143,1142,1139,1132,1112,1085,1045,986,925,872,830,812,804,819,834,845,844,840,832,824,815,800,791,790,787,795,806,809,811,811,813,814,812,807,801,798,800,806,812,811,809,810,809,808,811,808,802,801,803,809,810,811,810,807,811,811,813,814,807,804,805,811,819,821,822,822,819,819,820,819,811,812,814,820,819,821,817,819,819,824,828,828,827,822,822,824,829,830,832,831,833,832,836,830,827,825,825,826,826,829,824,826,830,832,833,831,830,823,819,818,825,828,824,824,826,828,829,830,824,821,819,820,826,830,827,826,821,818,821,824,823,820,815,813,820,824,821,819,817,816,820,821,818,812,803,804,807,812,814,816,818,821,829,829,822,816,810,813,820,826,827,824,828,828,829,825,825,826,832,844,848,852,853,851,857,859,860,860,857,854,856,861,868,870,863,859,856,854,856,856,854,852,849,846,842,840,833,832,832,833,831,826,819,813,812,816,821,827,825,820,816,815,816,817,812,815,809,809,806,805,796,786,779,783,794,816,854,893,933,973,1013,1046,1074,1096,1114,1124,1126,1123,1113,1092,1070,1037,989,928,872,832,816,814,823,834,843,846,840,836,830,825,814,806,808,809,816,814,813,809,807,814,818,818,814,816,817,819,819,815,811,803,806,810,814,817,817,817,816,817,821,818,816,814,814,816,821,821,822,821,822,825,828,823,816,817,815,817,826,831,826,827,827,831,828,829,825,824,830,832,837,833,835,835,834,835,837,836,829,828,831,830,836,836,834,834,833,837,836,835,830,828,827,830,832,831,829,825,824,826,828,830,825,820,816,817,821,824,825,826,826,828,828,827,824,821,818,819,823,823,822,818,812,813,813,817,819,815,809,808,810,813,818,817,812,816,815,817,816,811,805,809,810,811,811,812,812,817,817,821,817,812,804,808,810,821,823,828,830,830,829,828,828,825,829,831,840,850,852,856,850,851,851,855,854,855,850,850,853,855,854,853,849,846,847,850,849,849,840,833,829,827,828,828,822,817,819,818,817,817,808,803,805,810,811,811,811,808,813,808,811,801,794,786,776,773,774,775,788,807,844,883,926,962,995,1023,1054,1082,1105,1122,1123,1115,1110,1104,1096,1078,1056,1017,960,901,852,816,798,793,807,820,830,836,831,818,807,802,800,802,801,796,793,789,791,792,791,791,786,791,800,805,803,803,801,798,797,796,797,797,793,795,793,799,801,802,800,792,795,796,798,798,798,801,801,803,809,804,801,799,799,802,802,799,798,800,800,806,811,805,803,803,803,805,803,805,804,808,811,816,816,810,810,811,807,806,810,808,805,807,811,815,818,812,810,807,803,806,807,803,803,801,801,809,812,808,802,797,797,797,799,801,796,795,799,804,804,803,798,796,793,791,794,792,791,793,795,795,797,790,787,786,786,785,783,780,779,782,784,787,784,778,777,777,777,775,777,778,777,783,787,788,787,784,781,783,784,782,776,776,777,783,786,788,787,785,786,789,791,791,787,791,791,798,800,800,802,804,808,813,818,822,819,821,825,829,832,834,830,829,825,824,826,824,822,816,816,818,819,817,814,807,802,798,793,787,781,780,780,785,784,785,782,780,781,780,783,775,773,774,779,779,780,775,770,762,753,743,748,754,766,799,841,886,931,967,1001,1028,1065,1093,1107,1110,1108,1100,1092,1079,1066,1041,994,935,870,818,783,768,768,782,795,806,806,804,793,782,779,771,765,763,762,766,767,770,772,770,772,777,777,775,774,773,774,775,776,777,773,781,779,781,782,778,774,776,775,778,776,776,776,781,785,785,786,782,781,779,783,786,789,790,790,792,793,795,798,795,792,790,791,794,796,797,799,798,801,806,805,799,799,798,800,801,802,803,805,805,806,807,809,804,804,802,802,804,801,799,802,800,805,806,804,799,792,795,795,791,791,790,795,798,800,800,801,799,794,795,798,799,797,796,794,794,793,796,797,792,785,786,788,789,789,785,784,783,785,787,786,783,778,783,779,783,782,781,779,782,783,788,785,786,779,783,782,786,791,789,787,788,793,795,798,798,793,793,796,798,800,802,803,807,813,821,824,827,825,828,827,834,833,833,832,833,833,834,834,830,826,822,819,818,820,823,819,815,812,810,805,798,794,787,784,786,788,788,787,783,783,785,788,787,784,783,779,780,782,785,786,783,778,773,766,758,752,746,752,770,803,841,882,919,952,984,1015,1044,1074,1094,1105,1109,1110,1105,1093,1077,1057,1022,966,900,839,790,770,770,784,802,811,812,805,794,789,780,772,766,767,771,772,775,774,772,773,773,778,777,773,772,774,776,776,779,780,777,778,777,780,780,779,775,777,779,782,783,782,781,780,786,787,787,784,782,780,781,785,790,791,790,790,797,799,799,797,794,794,797,798,801,797,797,800,800,805,799,797,793,796,800,803,804,808,806,806,805,805,802,798,799,797,800,799,800,796,796,797,797,799,796,792,787,787,788,792,796,796,796,797,798,799,801,797,791,785,788,790,792,792,787,788,788,791,793,790,787,783,784,785,786,786,784,785,782,785,785,778,776,773,769,772,771,770,769,772,773,776,778,776,774,775,779,781,780,776,776,783,783,786,784,782,784,787,790,792,793,792,793,798,805,808,805,807,811,818,822,825,826,828,828,832,832,831,828,825,823,826,826,822,821,819,820,818,811,803,798,791,790,787,787,788,784,783,785,787,790,787,785,782,786,785,786,786,784,783,780,783,779,769,752,742,740,748,765,795,828,875,919,963,1000,1035,1072,1096,1121,1136,1136,1132,1123,1112,1094,1071,1023,959,895,835,802,787,788,795,809,818,824,821,808,794,782,770,769,769,770,768,764,767,775,780,782,782,779,779,781,781,780,781,779,780,783,782,779,777,777,778,781,782,781,777,776,777,782,785,785,785,782,784,784,788,785,784,784,786,790,795,794,792,790,793,794,794,790,791,795,800,803,804,800,794,796,796,802,805,801,802,802,804,808,809,808,805,803,806,809,813,809,807,802,804,811,814,817,812,811,810,812,812,809,803,801,799,803,810,811,808,809,806,806,806,805,801,800,799,809,810,807,803,803,803,803,802,801,794,794,797,803,805,806,800,800,802,803,796,792,789,788,795,799,805,805,798,796,791,793,801,803,803,805,808,813,816,819,817,815,815,816,820,823,826,829,838,843,849,855,856,853,847,842,845,842,845,842,844,843,844,845,843,841,839,841,841,838,834,825,815,810,810,812,815,815,811,809,806,807,809,809,806,800,804,806,810,812,812,804,800,797,796,786,773,769,770,777,796,819,846,880,907,937,972,1008,1041,1068,1091,1107,1116,1122,1122,1120,1109,1094,1071,1038,992,929,873,830,804,800,814,825,837,840,838,832,831,824,819,807,801,799,800,802,801,799,799,802,802,809,815,814,810,806,808,806,808,804,801,804,809,812,822,817,813,810,811,813,816,813,812,810,815,819,820,822,819,817,816,820,823,824,823,820,821,825,831,832,828,824,821,822,822,826,827,825,830,832,838,836,838,834,828,826,829,833,834,834,833,833,839,840,840,837,833,832,831,836,835,832,832,833,836,836,839,834,831,827,825,827,831,827,829,828,830,834,836,833,827,824,826,828,827,828,827,828,830,829,830,825,824,824,826,826,826,827,823,824,826,828,829,826,819,819,819,822,820,818,819,822,828,831,830,826,820,825,826,828,828,828,828,827,834,836,841,835,832,830,831,833,833,833,832,837,841,844,844,845,843,840,842,845,847,847,848,858,867,873,876,875,878,877,877,881,880,878,878,882,885,877,873,867,868,870,871,872,867,861,856,850,847,850,843,843,833,835,838,835,834,829,829,831,836,835,836,835,830,832,832,829,822,817,808,803,801,805,809,824,849,882,921,966,1005,1042,1073,1100,1127,1147,1158,1153,1147,1134,1125,1118,1098,1068,1018,958,898,853,829,817,822
