790,792,788,786,785,788,785,789,787,785,781,782,781,780,787,792,796,800,798,798,794,791,793,796,794,791,790,793,792,796,797,796,795,788,791,791,792,791,793,791,795,797,795,794,791,789,787,788,787,787,786,780,780,783,785,785,782,779,774,771,773,772,775,779,782,785,782,780,775,771,768,768,767,770,775,779,781,781,778,780,778,779,781,779,779,778,774,772,772,775,773,778,778,782,785,788,788,792,796,797,802,808,808,808,806,803,801,803,806,809,818,819,820,823,820,818,815,810,809,808,806,801,803,802,802,799,797,790,782,777,768,763,760,760,763,763,765,768,772,773,770,771,768,766,768,765,766,770,775,785,805,835,882,945,1023,1115,1214,1316,1400,1463,1492,1485,1435,1328,1200,1072,944,816,688,639,707,777,832,862,859,839,814,788,771,769,769,775,781,781,781,783,784,786,785,790,791,789,785,784,783,783,787,791,791,795,797,798,798,796,795,796,800,806,813,819,821,820,820,821,815,816,822,825,829,832,838,842,846,853,861,861,864,867,871,875,885,890,900,906,908,912,913,916,920,925,930,935,942,943,948,949,951,946,949,948,944,941,937,933,927,918,913,902,897,888,881,872,865,861,851,844,832,822,815,813,807,803,803,801,799,794,787,783,784,783,787,788,792,797,794,793,792,789,789,786,784,786,789,790,790,790,789,791,788,788,789,792,792,792,794,796,796,797,797,792,787,785,781,783,783,783,785,788,786,787,787,783,782,779,777,773,775,778,778,781,778,778,775,775,771,771,768,769,770,769,772,776,774,773,774,767,767,767,764,762,762,765,767,769,772,774,774,771,770,767,765,764,758,760,762,764,770,770,774,775,776,777,778,779,781,781,777,782,782,785,789,789,788,787,791,793,800,806,810,812,809,804,796,790,785,780,783,785,788,785,785,780,772,766,757,757,755,752,757,762,765,763,765,763,762,764,766,767,767,767,759,755,757,768,793,836,893,973,1067,1169,1278,1371,1439,1480,1493,1469,1399,1271,1143,1015,887,759,651,693,747,795,815,822,807,791,774,766,760,763,762,764,763,762,764,766,770,773,770,773,772,774,773,772,770,770,770,772,777,785,786,789,790,788,782,782,784,787,790,795,799,805,806,808,810,813,814,818,820,825,830,838,841,846,849,851,857,859,864,869,875,880,883,888,895,900,906,907,909,908,908,905,906,905,901,902,898,902,899,896,888,878,867,854,839,827,820,818,816,811,803,797,791,782,776,773,766,763,764,763,765,764,763,760,762,760,754,753,751,747,748,749,752,755,756,758,758,759,755,752,752,752,753,756,754,760,762,764,764,764,762,753,755,752,757,758,760,765,763,760,759,756,753,753,751,753,755,757,758,763,764,760,759,755,752,746,746,749,753,756,757,761,760,755,751,745,747,746,748,750,753,756,757,758,757,755,752,752,751,752,751,750,752,755,761,763,763,762,760,759,758,759,758,758,758,760,764,771,772,776,774,775,778,775,780,783,786,785,785,790,790,787,792,792,797,798,797,796,798,807,804,807,809,809,807,802,800,796,796,788,787,780,778,772,767,767,765,761,764,766,763,762,768,771,773,778,777,777,776,770,770,771,770,770,781,800,832,875,931,1001,1078,1155,1232,1308,1377,1430,1460,1469,1439,1361,1233,1105,977,849,721,665,711,767,812,834,834,823,804,787,777,774,773,771,773,774,775,780,782,788,790,794,793,791,788,783,781,780,785,789,792,796,796,794,795,793,795,798,796,797,798,804,808,819,824,825,826,826,823,824,824,827,835,840,846,857,861,867,871,873,878,885,888,893,904,910,914,919,920,918,923,923,923,924,924,925,926,929,927,930,923,920,912,905,895,885,874,861,855,853,851,848,842,832,828,818,810,804,797,792,789,785,779,782,781,780,782,780,777,773,771,772,775,777,779,781,779,775,775,773,775,778,778,780,784,785,789,791,793,792,790,787,784,781,780,781,784,792,792,796,794,791,790,790,787,785,782,784,787,790,791,791,788,785,785,785,779,781,779,780,780,777,782,783,785,784,782,777,777,772,771,773,778,781,783,786,783,779,779,774,772,769,766,769,768,772,777,781,780,779,776,775,770,768,764,765,765,770,772,779,783,786,793,793,796,793,797,796,799,803,802,802,801,802,805,807,809,811,812,811,808,808,810,812,814,810,808,804,799,798,791,783,782,780,773,771,769,765,767,770,771,772,772,769,766,770,770,771,777,778,778,774,773,773,778,799,825,871,936,1014,1103,1199,1298,1384,1449,1489,1501,1481,1430,1336,1208,1080,952,824,696,666,714,772,820,844,839,825,808,795,780,776,778,778,779,780,779,783,784,787,786,788,786,784,785,784,787,787,785,788,788,792,794,801,802,804,808,808,805,807,811,810,812,817,819,825,827,828,831,834,840,840,846,846,854,861,865,876,881,886,889,894,901,908,914,918,919,925,924,928,931,929,929,934,934,935,932,931,928,927,930,926,920,911,899,887,879,866,860,852,843,837,833,830,825,819,814,807,803,801,798,796,794,794,794,795,794,794,790,790,784,782,781,781,783,785,787,788,790,790,791,789,791,789,787,781,780,783,787,792,796,797,798,796,793,793,792,793,794,794,792,797,799,802,802,799,793,790,785,783,780,783,789,792,792,791,785,781,779,776,774,774,776,782,788,792,790,789,786,778,776,773,776,775,776,779,782,777,779,780,780,778,779,779,775,772,769,770,771,777,782,782,784,782,780,777,775,777,779,789,793,798,800,800,799,798,797,797,794,795,797,800,807,811,816,815,814,812,811,807,803,802,807,806,802,800,801,800,799,795,789,787,780,775,775,771,768,770,769,770,769,765,762,759,759,762,765,771,774,777,778,774,771,773,780,795,819,857,915,984,1063,1158,1253,1345,1422,1471,1493,1484,1441,1357,1232,1104,976,848,720,634,665,722,788,827,841,839,817,799,784,776,781,775,776,776,775,776,777,781,781,783,785,786,783,784,783,780,780,778,780,786,789,791,792,791,797,801,803,806,808,808,807,805,807,811,817,824,828,831,833,831,832,834,835,838,840,848,852,857,869,875,879,882,884,887,889,891,897,901,908,917,922,929,929,933,936,937,938,939,938,939,944,946,945,942,940,937,932,926,915,909,900,893,882,876,868,862,857,846,834,825,818,813,808,801,801,800,797,797,795,790,791,789,786,784,778,783,780,784,786,792,793,791,790,789,790,786,780,781,781,786,791,796,796,800,798,795,790,788,788,789,794,797,798,797,796,794,795,792,790,789,788,791,791,794,797,798,797,794,788,784,784,783,784,784,787,788,791,789,792,789,788,788,786,784,781,776,774,773,776,780,785,783,780,779,780,778,781,782,780,778,778,771,775,774,778,778,780,779,777,777,782,785,788,786,785,784,784,787,786,792,796,800,804,802,806,804,802,800,797,793,795,802,809,813,814,817,819,815,812,810,808,806,806,801,795,790,787,783,783,779,778,777,770,768,765,764,764,764,765,768,771,775,775,774,770,765,760,758,762,772,791,820,859,916,989,1074,1176,1278,1373,1446,1492,1504,1478,1409,1281,1153,1025,897,769,645,692,754,813,850,858,850,827,805,789,774,771,770,773,774,775,779,780,782,782,781,781,778,778,778,779,782,784,788,790,790,790,790,791,793,795,798,798,797,795,797,800,801,810,810,814,816,817,820,824,825,829,832,838,844,849,857,864,867,875,877,880,881,890,896,904,910,918,920,922,922,927,931,932,936,935,937,939,941,941,940,939,934,925,921,911,903,891,882,876,871,865,856,848,840,830,821,815,808,801,802,799,799,797,795,790,786,783,779,780,779,781,781,781,781,783,786,785,783,783,784,782,783,786,787,790,791,793,793,791,788,785,782,782,782,784,785,787,789,792,793,794,789,786,784,783,780,777,781,782,788,790,786,782,777,773,771,769,772,768,770,773,776,781,781,782,783,783,779,774,762,760,760,758,761,771,773,773,770,770,767,759,761,759,761,762,763,764,764,764,765,763,760,761,762,758,763,766,767,773,779,784,783,784,782,778,779,778,783,789,789,796,797,799,797,795,791,789,788,788,789,787,782,786,788,787,783,781,773,766,766,760,757,750,751,750,753,757,756,752,751,751,750,751,757,758,762,763,760,759,760,762,771,793,829,883,952,1031,1118,1210,1300,1381,1443,1481,1490,1468,1402,1279,1151,1023,895,767,661,692,745,791,818,827,817,799,783,773,766,767,766,768,768,764,766,765,763,764,770,769,773,775,775,773,773,775,777,779,778,782,783,786,792,794,795,798,793,790,789,788,786,795,801,805,810,816,818,820,824,821,820,822,819,825,833,839,847,854,862,872,877,882,886,889,893,900,904,911,914,922,923,924,925,927,925,926,921,916,913,906,898,888,881,870,861,849,842,829,822,819,817,814,812,808,801,795,784,782,775,770,769,769,767,768,770,771,772,772,777,771,771,770,767,763,762,762,768,769,771,773,774,775,775,771,768,767,769,769,774,777,779,778,775,771,767,768,767,768,770,777,779,780,779,773,770,767,764,762,762,763,769,770,771,772,770,765,759,753,751,747,747,751,752,753,756,756,757,755,751,751,749,745,747,746,747,750,753,751,753,753,751,744,743,741,740,739,738,738,744,749,754,762,765,769,771,768,765,760,756,753,757,763,763,765,766,766,767,768,771,775,778,784,784,783,781,781,777,775,774,770,770,769,770,769,772,769,766,762,755,745,738,737,743,746,751,752,754,753,750,749,747,750,752,753,755,755,753,754,758,767,776,796,824,863,916,984,1060,1142,1224,1304,1370,1423,1457,1469,1452,1392,1280,1152,1024,896,768,640,656,707,765,804,822,820,809,793,778,770,768,765,773,778,780,779,777,774,774,770,772,774,780,783,786,791,797,796,795,793,791,787,790,791,788,791,793,796,796,801,806,809,812,816,818,818,824,826,830,833,836,835,845,847,849,847,851,856,862,868,873,881,886,890,902,903,906,909,910,910,915,921,926,934,940,945,944,939,937,935,934,933,930,927,922,920,914,906,899,887,876,867,859,857,852,844,836,830,822,817,812,803,799,798,798,796,796,795,789,793,793,792,790,787,785,784,782,781,782,780,785,793,798,798,799,799,797,791,793,795,796,797,799,803,803,802,805,801,803,799,798,796,795,795,797,803,806,809,810,809,804,800,798,794,794,795,803,803,800,801,800,797,793,793,791,792,796,798,794,798,795,795,792,789,787,786,782,786,786,789,786,791,796,796,798,794,790,788,784,783,783,789,791,794,794,791,792,788,787,788,788,792,801,807,815,817,819,817,812,808,814,814,811,812,813,812,816,820,819,824,826,827,826,822,823,821,822,821,820,825,822,819,812,804,798,789,784,779,781,781,783,785,784,787,787,787,786,783,781,778,780,781,784,787,790,788,790,793,807,839,889,957,1039,1130,1228,1326,1418,1480,1508,1507,1466,1371,1243,1115,987,859,731,711,765,819,859,874,866,850,827,810,801,800,799,802,804,805,802,801,801,798,798,798,797,798,801,805,810,810,811,811,811,811,811,813,815,817,820,825,827,829,826,823,822,822,824,826,830,835,838,844,849,853,856,857,858,857,859,863,869,876,883,890,902,906,908,912,914,918,922,925,930,937,944,953,960,966,966,965,962,959,956,951,954,953,954,952,942,936,924,915,904,896,888,884,876,873,867,863,855,845,837,830,822,817,814,815,813,812,813,816,816,819,817,815,816,814,807,805,803,802,805,809,812,813,814,814,814,813,812,811,809,811,813,816,814,815,819,818,819,816,817,815,817,818,818,819,819,819,818,815,814,811,812,810,808,811,810,813,817,816,817,816,813,810,807,807,806,809,813,816,818,815,809,810,808,808,810,810,813,813,813,811,810,811,810,806,809,807,804,803,803,805,805,805,809,813,814,812,813,812,815,820,822,827,829,830,837,834,834,835,836,835,837,835,838,842,844,847,849,849,847,850,849,846,840,841,833,832,824,817,812,806,803,798,796,792,795,796,798,799,801,800,801,799,800,798,801,799,793,794,795,802,818,847,895,969,1057,1163,1278,1378,1463,1519,1542,1538,1507,1443,1323,1195,1067,939,811,723,761,817,856,871,866,851,832,816,809,807,808,806,805,805,804,806,807,809,814,813,815,813,815,811,809,807,811,813,817,819,821,821,818,820,821,824,826,826,831,833,836,838,841,843,845,845,848,850,854,857,865,872,881,888,892,894,901,899,902,907,915,924,933,940,946,949,954,954,956,955,955,957,957,958,956,957,954,955,951,948,939,932,925,915,904,891,879,869,862,858,851,844,834,830,822,817,812,808,805,801,805,809,813,810,802,795,788,784,783,787,788,791,792,793,796,795,796,795,794,795,794,790,791,784,788,788,791,793,796,799,799,795,789,790,791,796,795,797,798,792,788,785,787,785,787,785,786,789,791,790,793,792,789,785,783,781,777,778,780,780,781,777,778,777,776,773,774,771,777,774,779,781,781,778,775,773,768,766,766,767,768,769,771,774,774,778,778,778,776,778,781,776,776,780,783,784,786,794,799,802,800,805,803,799,792,792,795,797,801,812,818,819,820,817,814,811,811,809,809,812,812,811,815,809,805,796,791,788,781,777,776,775,777,782,787,787,788,788,785,786,782,779,779,781,780,784,791,797,806,822,846,878,918,967,1020,1082,1156,1237,1322,1399,1454,1484,1475,1419,1303,1175,1047,919,791,680,714,771,824,858,864,850,828,809,796,793,797,797,803,803,804,804,802,802,804,804,806,809,811,818,823,825,827,826,823,820,818,820,824,829,837,840,844,841,843,842,841,843,847,850,855,860,866,867,871,876,878,883,887,891,898,904,912,918,925,933,941,946,950,955,957,958,960,960,967,972,978,977,978,973,970,963,960,953,948,941,936,928,922,914,908,902,891,883,873,867,862,854,848,847,837,839,836,832,829,826,818,814,813,813,811,813,814,815,817,817,818,816,816,812,812,811,812,813,816,819,821,824,826,828,830,823,828,827,829,826,825,824,823,818,820,821,824,827,827,828,827,828,826,825,829,830,827,828,826,824,821,820,819,820,825,827,830,831,829,827,822,817,811,806,806,814,812,819,820,820,821,816,815,812,809,810,809,814,816,818,819,819,820,817,816,812,808,808,809,812,817,818,820,818,821,824,826,829,834,837,839,839,837,839,839,836,835,838,842,846,849,853,853,851,847,848,848,851,852,848,848,847,844,842,839,835,827,823,816,813,812,812,807,804,804,804,803,807,810,812,814,816,814,813,811,811,809,807,807,815,827,848,880,927,989,1068,1155,1249,1346,1429,1497,1533,1546,1532,1495,1420,1302,1174,1046,918,790,724,761,816,863,890,893,879,857,837,823,812,812,817,818,821,821,824,822,817,817,815,819,817,820,820,822,822,821,821,825,827,831,835,835,834,834,832,831,834,842,848,853,858,857,858,856,857,856,858,864,874,878,888,896,894,893,898,899,905,908,911,917,925,934,946,951,955,959,963,966,973,977,980,980,979,976,978,975,976,972,972,970,964,956,946,933,927,916,910,904,892,884,877,868,859,855,842,836,833,835,837,842,843,837,837,830,823,816,815,815,814,817,821,826,822,825,825,821,817,819,817,817,822,822,824,823,822,822,825,822,822,822,820,822,826,828,827,828,828,828,825,822,819,820,817,819,821,819,821,823,821,818,818,817,814,815,812,806,806,804,808,811,814,813,812,807,803,804,804,803,807,807,810,809,808,810,806,804,799,801,801,800,798,797,798,801,802,804,802,806,802,799,796,798,799,801,803,809,813,810,817,814,811,810,807,807,812,816,821,829,831,835,836,835,833,829,826,819,819,817,817,822,821,824,819,813,806,798,790,788,784,783,783,779,779,779,782,782,782,778,777,780,785,785,788,791,788,789,787,791,801,825,865,918,983,1062,1139,1218,1299,1373,1440,1472,1485,1451,1361,1233,1105,977,849,721,704,750,805,840,851,839,819,794,779,772,776,783,788,786,784,784,781,779,777,782,787,787,791,797,798,800,799,796,796,795,792,793,801,802,808,809,808,808,811,817,819,824,820,821,820,822,829,839,846,846,851,857,860,860,864,864,866,872,876,884,892,898,907,910,916,919,921,924,928,934,938,944,945,945,943,944,946,950,950,948,949,944,941,938,932,920,905,897,885,873,867,863,856,854,849,848,842,835,828,819,813,809,808,804,806,807,808,810,809,808,804,801,801,801,802,803,803,806,803,809,810,805,805,805,807,808,811,810,809,812,812,815,818,819,819,818,815,816,814,816,819,825,827,826,826,823,818,816
