885,886,887,890,888,888,887,885,882,883,884,883,885,887,886,887,884,886,884,885,882,881,878,877,879,879,878,877,877,874,871,868,865,865,863,861,861,863,860,860,858,856,855,854,851,849,848,848,849,850,847,848,848,847,847,846,843,844,841,843,843,846,846,848,847,847,845,845,840,838,839,840,842,842,842,840,841,840,839,835,831,833,835,833,836,837,839,838,839,837,834,834,833,830,830,829,833,832,834,834,833,833,831,829,829,825,826,827,832,832,832,833,833,828,829,829,831,828,830,828,830,831,832,834,835,835,833,829,830,831,830,834,831,833,834,836,836,837,836,834,832,831,833,832,834,835,837,837,837,838,838,838,837,836,835,834,836,835,835,838,840,840,839,837,833,832,832,832,837,838,841,843,845,844,841,840,838,838,838,839,842,844,844,845,845,845,843,841,843,841,844,844,846,848,849,849,851,849,848,847,844,845,843,844,848,850,851,855,853,853,853,848,847,845,849,850,851,855,854,857,857,856,858,857,853,852,857,860,864,866,869,869,867,868,865,864,863,860,860,861,863,863,864,863,865,868,867,867,863,860,857,856,856,851,850,853,852,850,851,850,850,848,848,848,848,850,852,856,856,856,856,853,854,855,861,871,886,903,927,950,973,990,1005,1016,1022,1028,1037,1045,1054,1059,1057,1045,1030,1014,994,974,953,929,911,893,884,878,870,867,862,858,854,853,851,852,853,852,854,855,855,858,856,857,855,856,855,853,852,854,858,861,862,863,861,861,860,858,859,853,853,855,855,856,864,864,864,864,861,862,861,857,859,861,862,861,866,867,866,866,866,865,864,863,864,862,862,867,868,870,869,870,870,870,867,868,865,868,872,873,875,877,877,876,877,875,875,872,871,873,873,875,874,877,876,874,871,869,867,863,863,863,864,865,864,865,861,860,857,853,850,846,846,846,845,845,845,844,845,843,841,837,837,837,835,837,835,835,839,842,839,836,835,833,834,831,828,831,831,832,832,833,832,834,829,830,827,826,826,824,827,824,823,824,824,825,822,819,817,815,813,816,819,819,818,821,820,820,819,815,814,813,814,816,817,818,818,815,816,814,817,812,812,812,811,812,812,814,811,815,814,815,812,812,810,812,813,811,814,816,817,819,819,820,818,817,816,813,815,811,814,815,817,819,820,819,819,815,814,814,814,816,815,815,816,819,819,821,820,818,817,817,817,818,819,821,822,825,825,823,822,820,819,819,817,819,817,820,821,823,825,825,825,822,822,821,820,821,820,824,826,825,825,826,826,822,822,819,824,823,823,823,826,827,827,828,824,825,822,817,823,824,825,828,828,827,826,825,825,824,822,822,820,821,823,826,827,829,830,829,831,827,827,827,832,833,834,835,837,839,840,839,839,837,836,835,834,835,836,837,836,838,838,841,838,838,836,832,831,829,829,830,829,828,829,830,830,828,827,826,828,826,831,830,832,835,834,833,833,836,839,839,844,849,859,875,892,916,939,957,971,983,987,992,996,1000,1011,1018,1020,1011,1000,983,968,949,930,909,893,881,872,865,858,854,847,842,838,837,837,839,837,841,840,841,843,846,844,847,847,847,848,846,845,845,846,848,850,854,852,850,850,851,850,849,850,845,849,853,856,855,855,858,859,857,856,855,854,855,856,858,861,862,861,861,859,859,859,859,860,860,863,863,865,869,864,864,867,866,866,865,866,865,867,868,871,874,872,874,875,870,871,868,868,866,868,868,870,871,871,870,870,866,865,862,858,859,856,855,857,858,854,852,850,849,845,841,842,841,844,840,840,841,841,840,839,834,835,832,830,830,833,833,837,837,837,835,832,832,829,827,826,825,829,830,829,830,830,826,826,824,824,824,822,822,822,825,825,824,825,824,824,821,819,817,815,816,817,817,821,822,821,821,817,818,817,817,817,816,816,817,819,821,817,816,817,816,814,814,813,815,815,818,818,822,822,821,818,819,816,817,817,816,817,819,821,825,826,824,822,820,819,819,819,818,820,821,823,824,823,823,823,822,821,820,821,821,824,821,823,828,827,826,826,824,824,822,819,819,822,823,824,827,828,825,826,825,824,824,821,822,823,824,826,827,827,828,826,825,825,825,824,822,827,827,828,830,830,829,828,827,828,827,825,825,825,829,829,832,830,832,834,831,829,829,826,827,829,830,832,832,831,831,833,833,835,835,837,839,839,840,840,841,842,843,844,842,841,841,838,837,836,835,839,844,842,845,842,841,839,835,832,832,834,834,835,837,834,834,832,829,828,829,827,828,828,831,836,839,838,837,839,836,838,838,839,845,853,864,881,900,920,942,963,982,995,1002,1007,1012,1017,1022,1027,1025,1020,1002,986,970,956,938,922,904,893,882,877,869,864,856,848,844,840,837,837,839,840,843,845,847,849,848,847,844,842,846,841,844,845,848,851,852,854,852,853,853,853,852,851,852,854,856,858,859,858,858,858,858,859,858,857,857,857,857,861,864,861,863,863,862,861,859,859,861,863,862,861,865,869,867,866,864,864,864,863,866,865,868,870,872,871,872,873,871,871,871,869,868,870,871,872,875,873,874,875,873,874,874,872,870,871,870,872,872,871,870,868,866,865,862,859,856,855,856,854,853,854,850,848,846,844,841,841,840,842,843,843,846,845,844,843,841,840,838,837,837,836,838,839,839,837,838,838,839,838,835,832,837,834,836,835,837,836,836,837,833,832,831,831,829,829,831,830,832,832,828,829,826,826,825,825,824,824,824,826,827,829,827,828,827,828,825,824,826,824,828,828,829,832,830,833,830,826,829,828,828,830,832,832,833,835,835,833,833,833,831,831,831,833,833,832,834,833,833,832,833,834,832,832,834,832,835,836,838,836,838,835,836,836,835,834,833,833,834,834,840,839,839,840,838,835,837,835,836,838,839,839,842,841,839,838,837,838,838,837,836,837,838,838,840,841,840,840,839,838,837,835,835,836,840,840,843,843,843,841,842,840,840,841,841,840,840,843,846,846,845,847,847,843,843,845,849,850,851,853,856,854,855,853,853,852,851,850,854,853,854,856,855,857,857,857,855,849,852,849,849,846,845,847,848,848,847,846,843,844,843,842,843,844,844,845,846,847,848,846,847,847,848,848,853,858,867,880,896,917,938,959,981,999,1013,1021,1025,1032,1040,1043,1043,1028,1017,1000,981,964,945,926,910,898,886,877,872,864,857,855,850,848,845,844,847,849,851,850,854,855,854,854,853,851,851,850,851,852,854,858,858,859,860,860,858,856,857,857,858,859,860,862,863,863,863,862,859,856,854,855,860,859,862,864,866,867,867,865,866,865,865,864,863,866,868,867,869,872,872,871,868,867,868,870,869,870,872,872,875,875,876,874,874,874,874,875,876,876,878,878,880,880,876,873,872,875,872,871,870,870,872,870,870,869,868,866,864,861,856,855,854,852,852,851,851,848,848,849,847,845,844,840,842,842,842,843,845,846,843,841,840,839,835,834,834,836,837,839,840,841,840,836,837,836,834,831,831,833,835,834,836,834,835,834,832,830,829,827,826,826,828,827,830,830,829,828,825,824,821,819,821,819,822,824,826,829,825,825,823,824,820,820,822,823,822,825,826,825,827,822,822,821,819,819,820,822,823,823,825,826,828,827,827,824,824,822,823,823,822,823,828,828,828,824,823,826,825,826,824,826,827,826,829,831,829,829,828,827,823,822,823,824,826,828,827,830,829,829,827,828,828,828,828,826,827,827,828,832,831,831,831,830,829,828,829,828,830,832,832,833,831,831,829,830,828,828,830,829,831,833,832,834,832,834,833,831,829,830,830,829,833,833,836,835,835,832,834,833,833,832,833,833,837,839,840,843,844,845,844,847,843,841,839,837,842,845,849,851,850,850,848,845,845,843,844,844,847,849,851,849,850,848,845,845,840,837,838,837,838,839,839,840,841,838,837,838,835,836,837,838,840,842,847,848,850,853,857,863,869,882,902,922,946,967,984,995,1004,1010,1014,1019,1024,1021,1017,1006,991,975,961,942,922,907,892,882,873,865,860,854,853,848,849,851,852,852,849,849,849,850,849,851,854,853,857,856,857,857,855,856,854,856,854,856,859,859,861,862,860,860,859,858,858,860,859,862,863,865,867,870,870,870,870,868,867,867,866,868,869,871,870,872,872,875,872,871,871,871,871,870,873,876,877,879,880,879,877,877,877,876,877,878,880,882,883,885,884,884,884,882,881,880,880,879,879,881,881,882,881,881,879,877,874,874,871,871,871,869,869,870,866,866,864,860,858,856,855,854,853,852,854,854,853,852,851,849,847,847,847,849,845,849,847,853,851,850,847,847,845,844,845,845,844,846,846,846,849,846,842,842,840,840,840,841,840,840,843,844,842,843,840,835,838,835,834,835,834,836,837,839,835,835,835,833,834,830,831,831,829,831,832,836,836,835,832,832,831,830,829,832,833,834,837,837,837,836,832,833,831,831,830,832,833,835,839,838,839,839,836,837,835,835,834,836,837,839,839,839,837,839,842,840,836,835,837,836,838,839,840,843,844,841,841,841,842,838,837,840,842,844,845,845,846,846,844,843,843,840,840,841,842,845,846,846,848,846,844,843,844,842,841,844,845,847,848,851,850,847,847,846,844,846,845,844,847,846,850,850,850,850,850,849,847,845,845,846,848,850,851,855,851,851,848,849,849,847,850,848,852,855,859,862,863,862,862,860,859,857,857,859,861,861,864,867,866,863,863,861,858,863,862,862,863,864,865,864,863,859,856,852,854,851,850,850,850,850,854,854,857,857,855,855,854,854,851,853,856,859,863,865,870,873,879,888,906,923,946,969,992,1013,1027,1038,1044,1049,1053,1056,1052,1043,1029,1013,997,981,964,951,932,918,904,891,882,872,866,865,861,861,863,867,867,867,867,866,865,862,864,866,865,867,870,871,870,872,871,870,870,869,870,870,871,873,874,873,875,874,874,874,875,873,875,874,876,876,877,877,878,879,878,878,876,873,874,877,877,878,880,880,882,883,882,879,880,878,879,880,881,881,884,887,886,887,884,885,886,885,884,884,888,890,889,891,892,891,889,889,889,887,885,886,887,885,887,888,886,886,882,880,878,873,872,874,871,869,869,869,865,865,862,860,856,855,853,852,853,854,853,855,856,852,852,849,849,850,848,850,849,851,849,853,853,852,850,848,846,846,844,847,847,849,848,850,851,848,846,846,844,841,842,842,844,844,845,846,845,847,844,840,840,837,838,836,836,838,837,840,838,837,837,836,834,832,830,833,833,834,837,837,836,838,835,831,830,831,832,831,831,833,835,837,838,836,836,837,835,835,834,834,836,838,839,839,839,839,838,836,834,835,832,833,836,838,837,841,839,840,836,838,834,833,834,836,837,840,839,841,843,839,838,838,836,836,837,836,840,838,842,843,843,843,840,841,839,838,840,839,841,839,841,841,843,845,843,840,836,837,833,840,840,840,844,844,843,843,843,839,839,838,838,839,841,843,845,846,847,846,846,842,842,839,839,840,843,843,845,847,844,847,845,847,848,850,850,852,853,855,855,856,855,855,854,853,851,851,852,851,853,853,854,857,855,852,854,853,855,853,851,849,849,849,849,848,847,845,844,842,841,842,840,844,845,848,846,850,850,851,849,851,851,853,854,860,864,874,894,913,936,955,974,986,996,1006,1011,1016,1021,1030,1035,1037,1031,1018,1004,988,971,952,935,917,904,895,883,879,874,866,859,854,853,850,850,853,856,858,859,860,860,860,860,861,859,857,857,857,860,862,862,865,865,867,865,863,862,862,863,865,866,870,868,872,873,875,874,871,871,867,867,867,870,872,870,874,874,872,872,874,874,874,873,872,872,875,876,878,879,880,880,880,878,878,873,875,878,880,883,887,888,886,887,886,884,884,886,885,886,888,887,889,888,887,886,884,882,880,877,877,876,876,875,877,877,872,871,867,864,863,863,860,859,857,858,860,856,855,856,852,851,849,847,846,847,851,848,853,851,851,850,849,849,847,845,845,847,848,850,851,850,850,848,846,845,842,840,843,843,843,846,848,845,843,841,839,838,838,837,834,834,839,839,842,839,839,837,837,836,834,832,831,834,837,835,837,838,837,836,832,834,831,830,830,830,833,834,836,836,835,833,833,833,833,830,832,833,834,837,837,837,836,836,835,833,833,833,834,834,835,836,840,839,840,836,838,837,837,835,837,837,839,840,842,844,843,842,841,840,838,838,839,841,842,844,843,847,845,845,845,843,843,842,843,843,846,846,848,847,848,849,846,844,843,843,844,844,846,847,848,847,848,847,844,845,844,840,843,847,848,850,851,851,849,846,849,847,846,847,848,845,847,849,851,851,852,848,849,850,849,845,846,849,851,853,858,860,859,862,863,860,861,860,857,861,863,863,866,866,867,867,864,860,860,859,858,862,865,865,866,863,864,861,860,857,856,852,851,854,855,856,859,858,860,859,856,856,854,854,857,860,865,866,871,873,877,883,891,907,928,953,977,1003,1026,1045,1056,1065,1071,1076,1073,1062,1048,1031,1015,1000,984,970,953,941,925,912,901,891,884,878,876,876,876,879,881,881,881,881,882,880,879,877,878,881,878,879,883,884,884,884,884,884,883,883,885,886,888,888,888,890,890,888,890,889,890,891,890,892,892,893,894,896,895,897,895,893,892,893,891,895,895,898,899,900,902,903,899,899,901,900,901,904,906,907,910,911,913,912,912,913,912,911,909,912,914,916,918,921,920,921,918,916,915,913,910,911,910,914,914,914,915,912,910,907,905,903,900,900,899,901,898,895,896,895,891,890,887,881,880,882,881,884,885,886,884,883,881,879,876,872,878,877,880,881,882,882,881,883,880,879,875,876,876,877,879,879,880,881,882,880,879,877,875,872,871,872,871,871,876,875,873,870,871,870,866,864,864,866,865,865,863,863,863,863,861,863,862,856,858,857,856,860,861,864,863,861,859,857,857,856,857,857,859,857,856,857,861,860,859,860,859,857,857,860,859,860,863,863,862,863,862,860,861,859,858,860,863,862,864,866,866,865,863,859,861,861,860,862,864,865,866,868,867,863,862,862,863,863,864,864,866,866,868,868,868,868,867,864,864,862,860,861,865,867,868,869,868,867,867,865,866,866,865,867,868,869,871,872,871,869,867,868,863,866,865,867,868,868,869,870,869,870,870,868,867,865,865,866,867,868,870,871,872,871,867,869,867,869,868,871,872,875,876,880,879,880,881,878,876,876,874,877,879,878,879,878,878,879,875,873,873,875,874,876,876,878,877,878,878,875,870,868,864,864,864,864,864,867,868,865,865,870,866,866,865,865,865,867,866,867,873,874,880,887,896,912,931,955,979,1002,1016,1033,1041,1046,1054,1059,1063,1060,1049,1035,1019,1004,988,969,953,937,919,907,896,885,876,872,867,865,866,869,872,873,874,871,869,868,865,865,866,868,871,872,874,875,875,873,874,871,871,872,871,872,873,876,876,877,876,878,877,874,875,875,875,876,877,875,878,879,879,880,881,879,877,876,878,877,880,881,883,884,885,884,882,881,879,879,878,879,883,886,888,890,888,888,887,886,883,885,883,886,886,888,889,890,890,889,888,887,885,883,885,881,882,883,882,879,878,875,876,874,871,868,867,867,867,869,867,864,863,862,859,857,856,855,854,854,856,855,856,857,859,858,856,854,853,851,851,853,852,854,855,854,854,853,851,850,848,848,848,848,849,848,848,848,846,847,847,845,842,840,840,839,839,840,841,843,841,839,840,837,834,833,832,832,831,835,835,836,835,835,831,831,830,830,829,831,831,833,833,835,835,835,834,834,831,831,832,832,833,835,833,835,836,835,834,833,831,831,831,836,835,837,840,841,839,840,837,837,834,837,835,835,838,840,842,841,842,841,839,838,835,834,835,833,835,837,840,842,842,840,836,837,835,835,835,833,839,839,841,843,842,841,840,842,836,837,838,837,843,844,844,845,845,846,843,841,843,842,841,843,843,848,848,848,850,850,850,849,848,846,846,847,849,851,849,853,853,852,850,850,848,847,849,850,850,851,852,854,853,855,850,851,851,852,855,856,860,861,864,867,866,864,864,862,860,862,861,864,866,871,871,870,870,871,870,871,868,870,867,867,869,869,869,868,865,865,859,860,860,859,860,861,862,860,864,864,867,866,865,867,865,868,869,873,876,888,898,915,932,952,977,998,1018,1036,1050,1059,1068,1074,1077,1079,1073,1062,1046,1029,1015,1000
