854,856,857,857,856,855,855,853,851,848,847,847,847,852,854,855,852,852,850,848,848,843,842,841,842,844,843,847,849,847,846,844,844,843,842,843,843,841,842,841,844,843,842,844,841,843,842,842,844,842,848,848,849,848,848,845,845,837,836,838,840,840,845,845,848,848,848,846,843,842,836,833,839,840,840,843,848,846,843,843,844,841,841,840,844,843,844,847,847,847,845,842,842,840,842,839,840,843,845,848,851,850,850,847,847,846,842,841,841,844,845,848,853,850,853,849,850,847,843,842,844,846,849,848,852,853,853,851,852,849,849,848,848,850,852,851,851,854,852,850,850,848,847,849,846,853,852,854,856,854,854,848,849,847,849,848,853,851,851,856,854,853,855,857,853,852,853,855,850,857,860,861,862,863,860,857,858,859,862,863,869,870,874,878,877,879,880,882,885,884,885,885,883,884,887,884,886,883,883,879,876,876,874,871,871,868,865,862,861,860,856,854,854,853,849,850,849,850,848,850,850,848,851,852,851,849,846,847,849,849,852,853,856,857,856,856,858,857,854,855,865,875,890,912,939,965,994,1013,1020,1011,983,945,894,844,798,759,728,715,724,737,758,779,795,811,823,836,848,858,862,863,863,862,859,860,860,860,862,864,868,870,868,866,871,875,872,872,872,870,872,873,875,874,877,881,880,879,878,877,875,877,877,880,880,885,885,885,887,886,885,884,881,882,884,887,891,895,898,899,899,898,901,899,901,899,903,904,907,909,916,914,919,919,923,923,924,928,931,933,939,945,951,955,954,957,960,960,959,960,964,968,973,975,978,977,984,984,983,982,983,980,980,981,981,981,978,976,969,961,953,951,945,940,933,932,926,923,922,913,907,902,898,891,886,883,878,877,877,876,876,875,874,870,867,863,864,863,861,863,864,865,865,867,864,862,858,857,858,857,859,860,863,865,868,865,863,864,862,858,859,859,860,860,865,865,868,868,864,865,866,866,867,860,858,864,864,866,869,868,866,865,863,861,860,855,856,861,861,860,859,859,855,855,855,852,852,850,851,850,851,852,854,854,853,851,851,849,846,843,846,844,849,850,854,850,850,849,848,844,845,843,844,844,846,847,847,851,850,849,843,847,845,843,847,847,847,848,848,851,850,847,849,848,844,846,846,849,845,848,849,850,849,846,846,843,840,842,840,843,843,846,849,849,848,846,848,847,846,846,843,844,847,845,848,847,846,844,842,845,845,845,846,846,846,848,849,846,845,847,845,845,843,843,840,845,845,844,851,849,846,846,845,842,842,839,839,841,845,845,850,849,843,845,842,844,844,844,844,843,846,848,848,849,845,843,842,839,841,842,841,841,844,844,848,845,848,850,844,845,844,843,841,843,846,843,850,852,849,847,847,846,846,843,841,846,847,851,850,854,855,858,860,857,858,857,858,863,867,871,876,877,879,880,877,869,872,866,866,864,864,864,869,867,864,859,854,850,847,841,842,841,842,843,846,844,843,840,842,836,835,835,834,835,837,842,844,842,840,842,841,838,839,837,837,839,839,843,846,845,846,850,853,861,871,884,902,926,951,976,991,986,968,935,888,837,790,745,711,694,688,703,721,740,758,770,779,790,801,815,826,839,847,850,854,853,851,850,848,846,850,850,850,853,855,855,860,859,860,859,860,858,859,857,857,863,866,867,869,868,870,867,864,866,865,863,866,867,869,872,871,870,869,874,874,872,875,876,876,878,878,882,883,882,886,888,888,891,894,893,894,896,902,904,912,914,913,915,915,914,916,920,923,928,935,939,947,949,951,952,954,956,961,958,960,962,965,971,976,978,977,980,977,976,978,972,973,972,972,970,972,965,965,957,952,944,941,934,926,923,921,919,914,909,902,898,890,887,881,875,871,871,872,871,871,868,867,865,863,859,857,856,851,856,858,858,860,859,860,857,854,854,852,852,851,852,856,858,858,861,861,855,854,851,855,854,856,859,859,862,863,862,860,860,858,855,855,852,855,858,859,857,859,860,861,859,857,854,854,847,847,854,853,855,856,855,853,851,848,845,845,843,841,844,839,842,845,851,849,847,846,844,845,839,843,844,844,843,847,844,845,844,842,837,841,839,837,840,840,844,845,846,847,845,843,841,837,836,834,837,843,844,847,847,846,845,842,839,841,839,838,837,839,841,842,842,844,842,840,840,838,835,838,838,840,842,846,844,844,843,841,838,838,838,840,838,838,840,843,842,846,840,841,840,839,837,838,838,838,840,844,842,842,842,842,842,840,836,837,840,841,843,840,840,841,843,840,839,836,836,839,840,844,844,849,844,847,845,842,842,840,839,842,839,841,840,841,846,846,845,843,844,841,840,839,844,844,846,846,845,845,841,842,842,842,839,840,842,843,847,850,844,846,846,847,846,846,845,849,853,858,862,865,865,865,865,863,865,868,869,870,875,875,878,879,879,877,878,869,867,867,862,859,861,865,863,859,857,851,848,844,845,843,845,845,848,847,845,848,845,843,844,842,840,838,838,840,843,843,844,847,848,847,850,849,845,845,847,847,852,855,861,877,895,919,943,970,995,1008,1004,986,949,902,850,799,751,721,708,710,725,746,767,783,797,811,826,839,849,858,860,856,859,858,852,856,856,863,860,867,869,867,867,868,867,868,866,865,869,872,871,874,876,877,876,879,877,875,874,877,879,881,883,885,885,884,884,883,882,885,884,885,889,887,894,896,894,895,898,902,900,902,901,903,907,909,914,917,922,921,924,923,924,924,929,931,934,941,947,952,956,957,959,960,964,965,966,967,973,976,981,985,988,989,988,988,988,986,984,985,984,983,983,982,978,974,969,963,955,954,949,945,940,937,932,931,924,921,914,909,903,895,891,888,883,884,883,882,881,879,878,876,874,872,869,869,871,870,870,871,870,871,869,867,865,867,868,866,865,868,869,873,874,872,872,871,869,868,869,868,867,869,871,873,872,873,872,870,870,868,867,870,866,869,870,872,875,872,872,871,870,866,866,865,865,865,866,870,867,868,860,860,859,860,856,859,858,863,864,866,865,866,864,860,857,855,855,856,857,859,863,864,864,865,863,862,859,857,857,856,856,857,859,862,860,861,862,857,856,857,854,854,856,858,861,861,862,862,859,857,856,855,853,854,856,858,862,859,860,859,860,857,856,855,858,858,858,859,858,861,862,860,861,856,859,858,856,855,857,857,859,859,857,857,855,854,857,856,856,856,858,860,862,862,863,862,859,860,858,854,853,854,856,855,856,858,860,861,864,861,859,854,859,856,860,861,862,865,862,861,860,858,862,858,858,858,858,860,862,864,868,864,864,863,859,856,853,855,860,858,861,865,865,865,864,862,858,858,858,860,861,862,859,863,864,865,860,862,860,859,857,858,858,861,865,870,870,874,876,876,874,873,872,875,874,879,882,886,893,898,897,895,891,889,884,885,882,882,882,882,883,878,876,871,866,864,861,858,857,858,860,861,863,862,859,855,855,852,850,849,847,849,857,855,857,856,857,856,855,851,855,852,855,858,859,863,865,866,875,886,900,915,941,969,996,1014,1013,996,961,912,861,806,761,727,711,713,733,756,780,800,813,825,837,847,854,860,862,864,864,862,862,863,865,868,871,871,869,868,870,871,872,877,876,878,876,877,879,879,878,877,875,881,879,882,883,885,885,885,888,885,884,881,881,882,884,889,892,892,894,896,894,892,897,894,893,895,896,900,903,910,912,913,914,915,913,913,915,915,923,924,929,932,937,937,940,938,940,945,945,948,958,959,966,971,974,977,978,977,980,978,979,980,982,988,987,990,989,992,993,987,984,983,981,977,972,967,962,963,955,949,944,936,930,923,917,912,909,906,901,899,898,893,888,885,881,877,870,870,867,870,869,875,875,873,870,869,866,865,866,860,861,863,864,867,868,866,866,865,862,861,860,858,862,864,866,867,869,868,868,866,864,861,859,858,861,862,864,866,867,868,866,866,862,860,858,854,855,860,860,858,862,858,858,858,856,856,853,853,855,854,857,855,855,853,854,851,849,845,844,844,847,847,848,850,850,853,849,845,846,844,840,844,843,843,845,845,844,844,847,845,845,843,841,837,838,843,841,846,848,849,846,844,842,842,839,837,841,841,839,842,845,843,843,838,842,836,836,835,836,838,837,838,836,840,841,841,839,839,837,837,838,838,840,843,843,841,841,838,836,837,831,834,836,837,837,843,844,842,845,843,841,840,836,836,835,838,838,840,838,840,842,840,839,837,831,832,831,833,837,838,836,837,834,835,836,834,829,836,835,839,841,842,844,840,839,840,838,834,834,834,835,835,838,841,842,841,842,838,839,835,834,834,837,839,840,841,842,840,837,834,837,834,833,835,834,836,838,843,842,842,841,839,838,836,836,837,836,841,844,850,852,854,856,856,850,851,851,854,857,864,867,868,868,867,868,867,865,862,858,853,856,855,858,858,858,854,851,841,835,831,831,830,829,833,833,835,838,836,833,831,826,826,824,824,826,828,830,829,832,831,830,827,827,825,828,831,830,832,834,836,839,840,842,848,862,873,890,915,941,970,988,988,969,934,882,831,778,731,696,673,667,675,696,721,740,754,766,778,792,802,812,821,832,837,839,842,838,839,842,840,839,837,839,841,842,844,846,852,851,845,850,850,849,843,844,844,844,847,850,853,854,857,856,856,855,852,850,856,858,862,865,866,867,867,866,867,864,864,867,864,867,872,873,876,881,881,883,882,887,885,887,888,893,895,901,907,911,915,921,922,923,924,926,929,931,935,941,946,953,955,954,956,958,959,959,959,962,966,967,970,973,971,967,963,961,958,952,946,945,943,937,936,932,930,922,917,908,901,896,889,881,876,878,875,868,867,864,860,859,851,850,852,851,851,850,851,853,852,846,844,845,846,843,843,844,846,847,847,849,850,850,849,844,842,843,844,841,842,843,849,852,853,854,852,855,850,848,848,850,852,850,854,854,854,851,853,847,850,848,850,848,851,850,850,853,851,850,845,843,842,842,843,843,843,844,848,846,847,847,844,843,841,839,838,841,839,840,842,843,842,840,838,839,839,839,839,839,841,841,843,844,840,839,840,836,836,836,834,833,834,837,838,841,839,840,840,838,835,833,834,832,834,840,841,844,841,841,840,837,836,837,834,837,836,839,843,842,841,840,836,839,837,834,836,839,838,840,842,843,842,845,839,841,837,837,835,834,837,840,839,842,840,840,844,840,838,835,834,837,839,837,842,840,843,841,839,839,838,837,840,841,844,843,846,843,846,840,836,840,837,835,836,837,839,838,840,842,843,842,840,839,836,839,839,838,841,843,843,844,845,846,845,843,841,843,845,841,841,846,848,848,848,848,846,844,842,842,843,845,845,851,853,862,862,863,861,862,860,863,865,864,871,872,874,879,877,879,877,876,871,869,865,866,866,869,866,868,866,863,857,852,846,847,841,842,844,844,847,848,848,848,846,843,842,835,834,835,837,840,841,843,842,842,841,840,839,841,838,840,841,843,848,849,853,857,865,880,899,925,952,982,1006,1016,1009,983,943,891,840,789,746,711,697,702,719,743,767,784,798,812,820,832,836,844,845,848,850,853,854,854,857,856,855,856,855,857,856,860,860,862,867,869,868,867,867,868,866,863,863,866,868,869,869,873,870,873,871,872,870,873,872,873,874,879,877,882,880,880,879,882,879,882,883,886,888,892,896,898,899,898,902,898,901,900,897,903,909,912,919,924,927,932,932,928,931,934,939,944,947,953,958,959,958,964,962,966,967,967,970,975,978,980,984,986,982,980,979,975,976,970,968,962,960,955,956,950,947,939,933,923,916,910,903,901,895,893,888,883,880,876,872,871,868,864,858,861,858,863,863,864,861,859,858,856,856,853,855,856,855,859,860,861,861,860,860,858,854,855,855,850,856,858,860,863,863,862,861,861,857,857,855,858,853,859,859,862,862,861,862,861,857,858,855,856,859,858,857,862,856,855,855,851,851,850,849,849,853,852,855,856,854,853,852,851,850,846,843,846,847,846,847,853,851,848,845,843,846,841,843,842,842,842,847,848,849,847,847,843,843,842,840,841,841,841,841,846,844,843,843,841,840,837,837,839,840,842,845,845,844,839,844,842,839,840,833,833,838,837,840,842,844,843,842,841,840,836,834,835,836,840,841,841,838,842,841,837,836,833,832,834,836,839,839,841,844,841,840,836,835,835,833,832,833,831,833,836,834,834,835,834,831,835,834,834,830,835,836,839,835,834,833,827,828,827,827,829,832,833,833,835,834,835,832,830,830,829,826,827,827,828,831,829,832,830,831,828,829,827,828,826,830,832,832,836,833,833,833,828,830,828,827,828,829,832,836,838,837,838,837,836,835,840,840,842,843,845,850,853,856,857,859,859,861,858,860,858,861,861,864,861,857,855,851,846,847,846,842,840,833,834,833,833,832,830,831,827,822,818,819,820,819,822,822,825,824,823,821,821,821,817,820,817,819,822,819,825,824,825,826,825,826,824,823,829,838,850,866,889,914,936,960,974,974,955,919,873,824,778,734,701,677,673,683,699,717,735,750,766,782,796,809,824,828,833,835,832,830,827,826,830,830,833,838,834,837,835,837,839,836,838,836,839,841,843,845,848,847,847,849,849,848,846,843,845,845,847,850,852,855,854,854,850,849,848,846,853,855,857,859,863,864,864,861,860,864,864,866,866,873,873,880,885,886,886,890,889,893,893,894,896,899,907,909,919,920,925,928,929,930,932,934,936,942,949,949,958,959,959,960,958,956,958,958,958,959,963,964,964,964,958,952,943,936,929,924,918,912,909,906,903,895,890,883,875,869,864,859,856,853,854,854,854,850,851,848,847,842,837,836,834,835,837,838,839,840,838,835,838,834,832,833,834,834,837,839,838,838,838,838,836,834,836,830,831,832,835,837,840,840,838,836,834,836,833,831,827,831,831,833,835,835,834,833,832,831,830,825,826,826,827,832,833,832,831,830,827,828,820,822,823,824,825,827,831,829,825,823,827,826,820,821,820,822,823,825,828,828,826,826,823,819,818,815,818,820,822,819,823,823,826,823,822,821,818,817,819,818,821,826,827,821,819,824,823,819,820,814,814,816,816,822,825,825,827,824,823,823,819,819,818,822,820,824,824,825,823,822,820,820,817,815,816,819,825,826,829,827,827,828,820,819,818,817,818,819,821,823,824,825,827,826,826,824,825,821,821,819,824,824,823,825,828,829,827,824,823,822,817,822,824,827,830,828,828,826,827,824,824,822,823,826,830,828,832,828,831,831,831,829,827,825,825,829,829,832,837,839,844,843,845,845,846,846,846,849,854,857,858,866,865,864,859,861,860,856,856,856,855,856,859,856,857,853,847,844,837,832,828,831,830,831,834,835,836,835,833,828,826,823,822,825,825,826,830,824,829,827,828,827,826,827,827,828,829,831,835,835,834,834,840,845,850,866,883,911,939,968,993,1009,1005,983,944,900,845,792,745,707,687,687,701,721,746,764,775,788,800,811,823,835,839,846,847,845,843,842,841,843,843,844,843,845,847,851,854,853,856,855,853,855,854,856,853,857,858,854,860,858,857,859,858,861,859,856,859,858,860,866,871,870,870,868,870,869,869,868,871,870,874,879,881,882,882,886,886,886,886,887,890,893,897,899,904,908,913,917,917,922,921,923,927,931,936,939,944,948,953,952,949,950,954,959,961,962,968,972,974,975,977,975,974,974,974,968,966,962,959,960,956,952,952,947,938,934,927,921,915,906,899,897,898,893,888,883,872,867,861,862,860,859,861,859,860,860,859,855,854,849,844,842,841,844,847,846,852,853,851,851,851,847,845,843,844,846,848,851,852,849,847,851,848,846,849,849,848,845,850,852,855,854,850,849,849,849,847,845,846,846,847,852,851,852,849,852,850,847,845,844,843,845,844,843,845,845,844,845,845,842,841,838,835,836,837,840,843,843,838,840,834,832,830,831,829,833,834,835,838,839,839,836,835,835,830,828,830,829,832,831,833,834,834,834,834,829,829,830,830,830,833,833,835,837,835,836,834,831,829,830,828,832,833,834,837,837,838,836,832,831,826,823,826,829,829,832,831,834,836,833,833,831,829,829,832,831,830,833,831,835,832,829,827,827,826,829,829,829,831,832,832,834,832,832,831,829,829
