898,897,896,895,897,898,897,897,897,899,900,899,897,896,899,895,895,895,898,896,895,900,900,901,900,898,897,895,896,897,896,898,898,898,900,900,898,897,896,895,897,901,906,907,911,916,918,916,915,917,914,910,905,904,904,904,907,909,911,911,909,908,904,900,899,898,896,898,901,904,907,906,909,910,912,920,933,955,996,1050,1121,1206,1284,1340,1359,1339,1273,1150,1022,894,766,681,705,766,823,863,881,882,880,872,875,878,884,887,888,889,888,886,883,882,882,881,881,884,885,889,889,892,892,890,893,893,893,894,897,898,897,899,901,905,905,906,907,905,907,905,909,910,911,912,915,916,920,921,924,921,922,921,923,923,922,927,931,935,935,936,936,936,934,932,933,932,935,936,940,939,941,941,937,937,941,937,937,936,939,940,941,945,944,946,944,945,943,944,945,950,951,957,962,963,964,963,959,957,953,950,947,945,939,938,938,941,938,935,931,923,920,915,915,913,913,915,914,917,914,914,911,910,909,908,906,908,909,911,912,914,914,915,915,913,913,915,913,914,919,921,924,926,927,926,922,922,922,923,920,921,929,928,930,931,933,930,928,927,927,924,925,926,926,926,926,929,928,927,925,922,920,918,918,918,919,919,920,920,922,919,916,912,911,910,910,908,909,910,910,912,912,911,907,908,905,904,901,900,899,905,903,905,908,907,903,901,897,898,899,901,900,903,902,902,902,903,901,900,899,897,894,894,895,898,902,903,903,903,899,897,895,898,896,896,896,896,898,900,901,900,901,897,898,898,893,892,894,899,897,899,902,900,899,899,896,895,893,894,894,896,898,899,903,902,902,901,900,898,898,897,899,897,901,902,903,903,903,903,902,900,895,895,896,901,906,906,910,914,917,918,920,920,917,916,914,912,911,911,908,908,912,912,911,910,909,906,906,903,902,903,903,902,903,904,912,915,921,931,947,975,1019,1077,1148,1229,1296,1333,1330,1276,1155,1027,899,771,658,690,753,815,856,878,883,880,877,876,881,886,890,893,892,892,891,886,885,886,883,884,887,892,892,893,895,895,894,895,893,896,897,899,899,902,903,905,906,901,901,900,905,904,904,908,908,911,912,915,915,917,915,914,912,912,914,916,916,921,925,926,928,928,927,925,923,924,925,928,931,934,933,938,936,938,937,936,932,932,932,931,933,933,937,938,938,937,936,935,931,931,926,928,929,927,932,935,937,938,936,937,938,940,941,943,947,949,953,954,954,951,948,947,946,944,941,939,939,936,933,933,931,929,927,922,920,912,912,909,911,911,910,911,910,906,907,905,903,903,901,905,905,906,908,911,909,912,911,909,910,911,911,912,913,915,918,921,924,925,927,923,922,921,920,924,924,928,928,931,929,931,932,933,931,929,929,927,928,926,926,927,928,927,926,923,922,921,920,920,920,921,919,921,920,915,914,912,914,914,908,906,905,908,911,910,910,911,908,908,907,906,905,903,904,902,904,906,905,902,903,900,901,900,900,899,898,902,902,902,903,903,903,903,898,896,893,892,896,897,901,901,900,899,899,895,895,894,894,894,898,900,900,901,901,902,901,899,896,898,895,894,896,896,896,900,901,900,899,897,898,896,894,894,897,897,897,898,898,900,900,897,898,898,897,898,897,897,900,901,901,901,900,903,901,903,907,913,917,920,923,925,924,922,919,914,911,908,907,905,908,911,909,913,914,914,911,904,902,897,898,899,898,904,909,912,911,912,917,923,932,938,957,993,1037,1094,1163,1233,1295,1330,1328,1283,1173,1045,917,789,661,681,742,807,855,881,890,887,883,884,885,888,891,893,893,894,890,891,891,890,890,890,890,890,891,893,895,898,898,897,897,897,898,896,895,899,899,902,906,908,908,907,904,906,905,907,908,908,910,913,914,917,916,918,917,917,918,918,919,919,918,922,925,926,928,930,928,930,929,928,929,930,931,934,936,937,937,937,936,933,934,930,931,930,930,931,930,933,933,933,932,929,927,926,926,928,931,933,936,939,939,944,944,944,946,946,946,947,946,946,943,940,941,938,935,931,929,924,921,917,914,915,914,912,911,909,908,905,902,899,900,899,900,902,902,903,902,901,900,900,902,902,903,902,903,906,908,909,913,912,912,912,911,913,913,916,918,922,923,924,923,923,922,922,922,920,921,921,923,924,922,925,925,925,926,925,921,919,917,917,917,914,916,919,918,916,915,911,910,909,908,909,910,910,909,909,909,907,905,904,901,902,901,900,896,899,899,901,902,901,900,897,895,894,894,894,894,896,895,896,899,896,895,893,891,890,894,895,893,894,894,897,897,897,897,894,894,891,893,892,891,894,896,895,898,896,896,895,895,891,890,892,893,894,895,896,896,896,896,896,895,893,892,890,893,894,895,897,897,897,894,893,893,892,890,891,891,894,897,898,897,897,896,896,892,892,892,892,895,896,896,897,897,897,897,897,897,895,894,897,901,906,909,913,914,917,913,914,909,905,902,900,900,903,905,907,908,907,907,907,903,900,898,897,895,894,894,898,898,901,905,904,905,908,911,917,926,943,971,1012,1070,1137,1214,1284,1330,1345,1319,1249,1126,998,870,742,678,707,762,819,858,873,875,869,867,869,875,881,885,891,890,885,879,874,874,872,873,878,880,883,886,886,884,884,885,885,884,886,888,893,893,893,896,895,898,898,898,898,899,899,899,902,903,905,909,909,909,907,906,909,907,908,911,913,913,915,917,917,921,919,920,919,919,922,924,924,924,926,924,929,929,930,931,930,930,929,931,933,935,934,937,934,935,934,932,932,932,932,934,937,939,938,941,946,946,949,952,952,956,955,954,956,955,954,953,950,947,942,940,933,931,927,924,923,920,917,917,913,914,910,906,904,902,903,902,904,906,906,907,904,906,903,901,901,898,900,901,904,903,907,909,909,909,910,910,909,909,909,909,910,913,917,919,918,920,916,916,917,913,913,914,912,915,917,919,919,919,915,914,915,914,912,910,912,911,913,912,910,911,908,906,904,902,902,902,904,902,905,904,903,901,901,899,898,896,895,895,899,898,898,897,897,896,895,893,894,892,892,892,892,891,895,897,895,893,893,891,889,886,888,888,892,893,896,897,894,891,889,889,890,888,888,890,892,893,893,893,893,892,892,890,892,889,888,891,890,888,891,893,895,893,892,891,892,891,890,891,889,892,894,896,896,894,890,893,891,889,889,890,893,893,896,897,896,895,893,892,892,893,894,896,899,906,910,912,912,913,913,912,910,907,906,902,900,901,901,905,906,907,908,906,903,901,898,897,893,893,894,900,900,902,901,905,907,909,918,930,949,985,1038,1107,1188,1266,1322,1347,1332,1268,1147,1019,891,763,675,702,760,820,859,880,881,878,873,874,880,881,887,889,888,883,880,879,877,878,876,882,882,884,887,888,888,889,890,886,887,887,888,890,892,895,898,899,897,900,902,903,901,904,905,906,906,907,908,913,913,914,913,913,911,912,911,913,915,917,922,925,924,922,923,923,925,922,923,926,929,929,931,933,933,933,933,933,932,929,931,929,933,933,935,935,937,937,936,935,935,931,936,938,940,941,944,946,946,949,948,952,953,955,953,952,954,955,953,952,952,949,945,941,934,931,929,923,925,924,922,920,915,913,911,909,908,904,903,905,904,905,907,908,910,908,909,908,906,906,905,907,910,909,912,915,914,916,915,915,916,914,916,917,919,921,923,923,924,924,924,923,921,920,920,920,924,924,926,927,925,926,921,919,916,915,917,917,919,918,918,919,915,917,915,914,911,908,910,909,907,908,911,910,910,907,904,905,899,899,897,902,903,903,904,905,905,903,902,901,900,901,899,900,899,899,901,902,901,899,897,898,895,893,892,892,893,894,897,901,899,899,897,898,897,896,897,897,899,900,899,899,899,899,897,897,897,894,896,894,898,897,898,901,903,899,898,896,895,895,895,898,897,899,900,901,900,899,900,900,898,898,899,897,900,901,904,904,902,903,900,898,900,901,905,910,912,916,919,922,922,921,919,915,912,907,907,907,907,910,910,914,912,909,911,908,903,901,899,899,901,900,902,905,908,909,908,911,913,918,928,943,964,996,1040,1096,1162,1231,1294,1330,1335,1299,1214,1086,958,830,702,678,724,784,835,866,877,877,874,873,878,884,890,894,893,890,883,884,883,881,882,884,887,889,891,892,890,894,893,894,894,893,895,895,897,900,901,904,905,905,902,905,902,902,903,906,909,911,914,916,917,918,915,917,914,913,914,915,920,920,920,924,924,927,926,927,927,926,927,927,929,931,935,934,936,937,936,937,935,934,931,933,933,934,935,934,934,933,935,935,934,934,931,931,931,930,932,937,939,941,941,942,944,945,949,951,950,953,955,953,950,948,946,943,940,937,936,933,931,929,927,923,921,920,917,913,909,908,908,909,908,908,910,910,909,908,907,909,906,908,909,910,912,915,914,915,916,916,916,918,918,920,918,919,919,925,928,928,931,929,927,927,927,924,929,931,933,931,935,932,932,932,930,929,928,926,924,928,928,924,926,929,929,925,921,919,917,915,914,913,919,918,916,919,917,919,918,916,912,910,910,908,910,911,911,910,911,911,911,910,910,905,904,902,904,904,905,907,906,909,906,906,903,902,899,901,905,905,906,905,906,903,899,902,901,901,899,900,901,903,904,907,904,906,901,903,901,899,900,899,902,903,903,904,902,902,901,898,898,896,897,897,899,901,903,903,903,907,903,905,902,902,902,901,903,899,901,906,906,907,905,906,905,904,903,903,904,907,912,915,920,923,924,921,921,921,919,917,915,914,914,913,914,914,911,912,910,912,912,910,909,906,905,906,905,906,906,905,906,907,909,913,922,932,947,965,992,1029,1081,1144,1214,1273,1315,1324,1301,1228,1101,973,845,717,666,697,755,814,851,868,876,876,877,882,886,891,893,893,891,888,888,885,889,890,891,895,895,896,897,896,895,895,894,894,893,894,900,905,905,905,904,904,903,902,905,905,907,909,910,913,914,917,914,915,916,916,916,917,920,920,920,924,925,929,927,927,929,928,930,931,933,933,936,936,934,938,936,936,935,935,933,932,933,933,932,935,936,935,932,929,930,929,928,928,932,934,937,939,940,942,944,944,946,948,949,949,951,949,951,948,947,943,940,936,932,928,926,922,922,923,921,924,919,916,913,913,911,910,908,908,906,907,906,911,912,910,910,911,909,908,909,907,910,908,912,918,918,918,918,919,918,918,920,923,924,925,928,928,928,927,927,925,926,925,927,926,926,928,929,933,932,931,930,928,925,924,923,923,925,924,926,925,924,926,923,920,919,918,915,916,916,914,916,917,918,914,913,914,910,907,906,907,909,910,910,909,909,911,908,905,902,902,901,901,902,904,902,904,907,902,899,903,900,901,900,900,903,900,902,904,906,903,904,899,900,898,899,900,900,900,901,903,903,903,902,901,901,898,897,901,900,900,902,903,903,903,904,902,901,900,900,896,897,901,903,904,905,905,903,900,900,897,895,897,900,900,901,905,903,902,900,900,900,900,901,900,901,901,903,906,907,908,911,913,916,918,919,920,920,921,921,921,918,913,911,907,908,907,910,910,911,910,911,911,909,903,901,899,899,898,899,904,907,911,914,922,932,947,975,1017,1079,1157,1234,1300,1330,1312,1232,1104,976,848,720,680,727,792,841,871,888,889,887,886,886,890,889,889,884,882,880,884,883,886,886,885,886,887,888,888,890,890,889,889,893,894,899,901,902,901,903,901,900,903,903,903,905,905,909,910,911,913,913,914,910,910,909,912,914,915,919,923,922,924,922,924,921,925,926,926,926,928,933,934,933,935,935,934,933,933,930,934,934,933,934,938,936,938,937,934,934,933,931,935,937,940,943,949,948,952,954,954,954,955,954,954,955,953,955,952,950,950,944,940,936,931,928,925,924,924,923,923,921,918,914,911,909,907,905,905,905,905,904,906,907,907,905,902,903,903,903,903,903,905,906,911,909,912,914,913,908,908,908,913,914,915,918,917,920,916,916,916,916,916,919,916,920,920,923,922,921,921,919,919,917,917,917,916,917,918,919,921,919,919,916,914,909,909,906,908,907,909,907,908,907,906,905,906,903,902,899,901,902,902,902,901,904,901,901,901,900,897,895,896,896,899,897,900,897,899,899,897,896,894,895,894,894,895,895,896,897,897,897,894,896,892,893,893,894,894,896,898,899,898,896,895,896,893,893,894,892,896,896,898,898,898,897,895,894,892,890,892,892,896,897,899,898,898,896,896,894,893,892,893,893,894,896,897,897,898,898,896,894,892,893,892,892,896,901,906,911,912,912,912,913,911,908,909,904,902,901,902,906,907,908,907,906,904,905,903,898,901,901,899,899,896,898,897,897,899,902,908,917,928,945,976,1019,1075,1150,1224,1289,1329,1335,1306,1227,1106,978,850,722,687,714,765,820,858,873,873,870,866,867,873,880,883,887,886,884,878,876,877,877,879,881,884,885,886,884,888,886,883,881,883,887,889,890,896,895,897,896,896,893,893,894,897,898,902,904,906,908,909,908,904,908,908,907,908,911,913,915,916,919,920,918,916,918,916,918,920,923,925,927,933,931,934,930,932,931,929,929,931,929,931,934,937,938,940,940,939,935,937,935,936,936,938,942,943,944,949,948,949,950,952,955,957,960,962,961,962,960,958,953,948,945,942,938,934,930,929,927,927,925,922,919,915,909,908,907,904,904,905,905,906,903,903,902,901,899,899,898,898,897,900,904,906,906,909,907,909,908,907,909,908,908,911,914,914,916,915,914,915,915,915,913,913,915,917,917,918,920,921,920,917,918,916,916,915,917,915,914,918,919,918,915,913,910,908,908,910,910,911,910,909,908,907,908,908,904,903,902,902,901,904,903,906,906,904,904,900,900,900,898,897,898,900,900,901,901,903,901,896,896,895,894,894,894,898,896,897,897,899,897,892,892,892,892,893,895,894,898,897,898,897,897,897,897,895,896,894,894,895,896,899,899,897,898,896,895,895,894,896,895,897,896,898,897,897,897,893,892,896,894,893,894,897,897,900,899,899,895,894,894,893,892,895,895,898,895,898,899,899,899,896,897,895,895,899,901,905,908,911,913,913,908,911,910,909,908,907,903,905,904,904,906,906,906,905,905,903,901,899,897,898,896,899,900,899,902,904,906,909,913,920,930,950,976,1019,1078,1147,1221,1284,1325,1339,1316,1250,1139,1011,883,755,696,711,760,814,854,873,878,876,872,873,877,884,890,890,890,890,885,883,880,880,881,880,885,887,887,888,892,890,888,890,890,892,894,897,899,900,902,903,902,899,901,903,906,905,906,908,911,913,914,914,916,914,914,913,912,912,914,915,917,920,924,922,924,922,922,921,925,930,929,931,929,933,932,935,936,938,936,936,932,931,934,937,936,938,939,942,941,939,936,936,934,936,938,938,938,940,945,944,947,947,949,946,951,954,955,956,958,961,959,955,951,946,941,938,935,926,924,926,924,922,922,917,915,913,908,906,904,903,904,904,906,908,910,908,906,904,905,906,904,906,908,910,909,912,914,914,913,913,912,912,913,917,917,922,923,925,926,926,925,924,923,921,923,926,923,926,925,929,930,928,926,925,923,919,919,920,923,923,925,926,925,922,920,918,915,915,914,914,914,916,914,916,916,913,913,908,906,907,904,905,905,903,906,904,908,907,908,906,905,902,900,900,901,902,904,903,906,902,899,900,898,897,899,899,898,897,900,898,901,903,902,901,900,897,896,895,895,895,896,896,900,900,899,897,895,893,892,892,893,895,897,897,897,896,897,898,895,898,897,897,897,896,897,900,897,899,898,897,894,894,895,897,896,897,899,899,898,897,897,899,897,898,898,899,901,901,902,901,899,900,900,897,897,895,896,894,897,898,899,901,902,903,903,902,904,905,905,909,913,914,917,919,920,918,918,917,913,911,907,906,904,905,906,908,909,909,906,908,904,899,895,895,893,896,900,900,908,909,911,914,919,931,947,977,1021,1080,1149,1226,1296,1338,1353,1324,1246,1118,990,862,734,657,690,759,818,860,878,880,876,870,872,875,884,887,888,887,889,887,887,886,887,884,884,886,886,888,891,890,894,895,898,896,897,896,894,894,897,898,901,903,906,905,906,906,906,906,907,908,907,909,910,911,913,915,918,917,917,917,916,919,918,921,925,927,929,930,929,930,929,930,929,930,931,934,937,936,934,935,938,935,934,934,932,931,933,934,935,935,936
