838,836,836,836,838,839,844,845,844,847,841,839,840,841,839,839,841,843,847,850,850,847,846,846,845,846,844,847,847,853,856,858,860,861,861,863,863,863,862,866,869,873,878,882,883,887,890,892,893,895,897,901,907,911,918,922,923,929,931,932,934,936,937,937,940,944,945,946,948,947,944,940,933,927,923,919,913,914,907,906,902,898,889,887,882,876,870,868,866,864,861,863,863,861,859,858,854,849,848,844,848,850,850,856,855,852,852,848,848,848,846,847,847,848,851,854,850,851,850,850,849,847,847,846,847,851,853,854,857,857,855,854,853,849,854,853,855,857,859,859,860,861,860,859,860,857,854,854,858,858,862,862,863,862,862,857,854,850,853,853,853,852,856,857,859,859,857,854,852,851,850,845,847,848,850,853,857,854,853,851,850,846,844,846,848,847,847,850,849,850,850,847,845,844,841,840,844,847,847,850,849,851,851,848,843,843,844,842,842,847,845,848,849,848,847,846,841,841,840,838,840,844,847,846,850,849,847,844,844,842,840,839,839,842,844,845,845,843,844,846,842,841,841,839,839,843,843,846,848,847,845,842,844,842,842,840,842,842,844,846,848,846,847,845,844,842,840,839,840,845,848,847,849,846,848,845,842,842,842,842,843,845,847,848,851,848,848,846,844,844,842,841,839,841,843,848,850,849,845,842,843,842,840,842,846,845,847,850,851,851,850,851,852,852,853,856,859,863,867,872,876,875,873,872,873,875,875,876,874,874,874,871,873,871,871,868,865,862,863,862,859,856,858,858,855,849,845,841,838,836,833,831,831,834,835,836,838,837,833,833,830,832,830,830,832,834,835,836,835,839,839,834,832,834,832,833,833,837,838,840,840,842,841,844,841,841,839,841,843,850,855,864,874,898,933,974,1020,1073,1125,1181,1231,1267,1275,1255,1198,1111,1005,893,793,726,694,704,738,776,805,826,830,828,827,824,825,827,831,839,838,841,839,836,837,838,840,838,838,838,838,837,837,840,842,843,844,843,843,840,839,836,838,838,840,842,842,845,847,848,847,845,842,840,840,841,837,840,845,848,849,850,850,847,843,845,845,845,845,848,851,851,850,853,856,855,853,850,850,849,850,856,861,864,867,871,871,871,873,873,876,879,882,885,889,895,899,901,905,907,908,907,910,910,920,923,927,931,934,937,938,938,939,941,940,943,944,947,949,949,949,947,942,937,930,926,916,910,906,900,897,898,896,890,885,879,874,866,863,860,860,859,860,861,863,859,858,855,852,849,849,848,848,850,850,854,855,855,855,851,850,848,847,847,848,849,851,852,851,853,850,852,848,847,845,847,846,848,849,855,854,855,855,856,850,848,849,847,846,849,852,853,853,856,856,853,851,848,848,846,847,848,852,850,853,851,855,850,849,847,844,843,842,844,841,846,846,846,845,844,843,840,837,836,836,838,839,839,841,839,840,840,838,836,836,835,835,840,838,840,842,843,841,840,837,837,835,835,832,832,834,838,842,839,841,838,837,835,832,834,834,835,837,836,840,839,837,835,831,833,829,831,831,831,834,835,837,838,835,832,835,833,832,830,833,831,834,837,839,834,837,833,835,832,833,832,831,830,835,838,836,839,839,838,836,833,833,828,830,832,835,834,837,836,838,837,835,831,830,830,829,831,836,839,839,841,838,836,836,833,835,833,832,837,836,840,838,839,836,839,837,834,831,832,834,836,839,842,843,842,842,841,838,837,837,837,836,834,838,841,844,845,845,842,845,844,843,846,846,852,854,862,866,866,868,866,867,865,871,872,875,878,879,877,871,872,870,869,865,863,862,864,859,858,855,854,852,848,844,841,838,830,829,829,827,831,830,833,833,832,831,831,832,829,827,827,829,826,828,830,832,837,836,836,835,831,830,829,830,836,837,839,839,840,841,842,841,838,843,844,848,852,853,862,879,907,948,992,1035,1079,1123,1178,1229,1262,1264,1227,1153,1052,937,825,741,696,684,699,731,760,783,796,803,806,814,824,832,832,837,839,835,834,835,835,837,839,839,837,834,835,837,834,837,835,838,841,842,842,842,839,841,840,838,839,837,838,841,839,843,843,841,841,839,838,838,838,835,837,843,844,846,848,847,844,844,841,840,840,842,846,850,849,856,857,856,856,854,854,855,856,856,857,861,866,869,874,876,878,876,874,874,877,884,887,889,895,896,903,905,907,907,909,909,914,919,922,925,926,935,934,938,938,934,931,928,928,926,927,923,921,918,914,908,902,901,891,885,883,880,876,873,871,870,867,865,861,862,857,855,851,850,853,855,854,854,857,855,851,848,849,848,847,848,843,846,846,852,854,851,852,852,850,847,843,848,848,850,851,857,856,857,856,855,855,855,852,854,854,858,861,866,867,863,866,859,859,856,853,856,858,858,863,865,865,867,866,864,861,860,858,856,858,860,862,861,862,861,861,858,856,858,855,856,857,858,859,858,854,856,855,857,851,853,852,851,850,848,852,854,855,854,852,849,847,848,850,848,850,850,851,853,852,852,852,850,849,849,848,847,847,847,850,852,851,850,847,850,848,848,844,843,846,846,850,851,851,853,850,850,849,847,846,842,847,849,851,853,854,849,850,848,846,846,846,844,844,847,851,848,853,852,850,847,845,845,844,843,845,847,849,851,850,850,851,850,848,847,844,847,848,847,850,851,854,855,852,852,850,847,847,847,852,854,857,856,856,857,857,856,858,856,860,864,868,871,872,880,880,885,886,888,887,889,884,878,877,877,878,882,882,881,880,881,874,871,869,862,858,852,852,854,851,850,846,846,843,844,844,841,840,842,845,846,848,846,844,844,840,840,839,839,837,841,844,846,848,847,847,843,844,841,843,843,845,847,851,853,853,858,859,858,858,862,861,866,875,904,943,991,1043,1100,1151,1210,1262,1293,1292,1257,1180,1078,957,840,752,706,694,716,751,783,804,815,819,824,830,835,844,850,855,854,853,846,844,844,845,847,849,853,853,854,854,851,847,850,848,848,845,849,849,855,851,853,855,852,851,846,849,848,850,852,853,852,855,855,855,851,850,849,844,843,847,849,854,855,859,856,857,857,855,856,857,851,856,860,864,867,866,868,869,868,870,868,868,868,870,872,880,887,887,890,892,893,893,893,897,898,899,906,911,918,922,925,927,930,928,931,934,934,937,942,945,949,950,952,951,952,947,945,943,943,937,935,933,932,928,925,921,915,908,902,896,891,886,885,879,880,880,876,876,868,865,860,859,858,858,859,862,860,860,859,857,859,857,854,854,856,854,852,851,856,852,856,856,855,851,848,850,852,853,853,858,859,861,860,857,856,856,856,858,855,857,859,859,862,863,863,862,859,860,858,856,857,858,863,865,865,867,864,863,862,861,859,857,855,856,859,860,863,860,859,859,859,857,855,852,853,852,854,855,858,858,853,854,854,852,848,848,847,847,845,846,850,852,850,849,847,844,843,844,843,843,844,846,847,848,849,847,846,843,842,841,844,842,842,842,845,847,847,846,843,844,841,840,839,839,840,844,847,846,844,845,846,843,841,839,840,842,840,842,843,844,845,843,843,839,839,840,836,836,841,843,844,845,847,845,843,843,841,839,839,840,839,841,844,846,847,843,838,838,834,836,836,836,840,841,842,844,842,842,841,840,837,838,837,841,839,839,841,844,844,843,842,839,840,839,839,837,840,844,845,846,844,844,845,841,841,840,836,841,841,840,843,847,846,847,848,845,844,844,845,851,857,863,867,869,872,873,872,872,870,872,874,876,877,879,878,878,875,873,873,868,865,865,864,863,865,864,864,862,857,853,847,842,834,833,830,833,833,834,834,835,832,837,832,830,831,830,829,828,831,834,836,837,838,836,834,834,833,835,834,831,836,837,842,840,839,840,841,842,840,842,845,846,851,857,863,874,895,930,973,1021,1069,1117,1174,1229,1275,1295,1281,1228,1140,1025,900,790,719,690,705,742,781,811,828,833,831,829,828,830,831,834,837,839,838,839,839,842,841,839,841,839,835,835,836,838,840,838,845,843,843,841,840,840,838,837,837,836,840,840,843,843,842,846,846,844,841,841,839,838,838,844,847,847,847,847,847,844,843,847,846,845,848,850,850,857,855,858,856,854,857,856,858,862,864,864,871,876,877,878,878,878,879,884,887,889,894,899,904,906,910,913,918,918,919,921,924,928,933,939,944,946,948,949,949,947,942,940,941,942,939,936,931,929,925,923,915,909,901,895,891,886,883,881,879,876,875,872,868,863,861,857,856,855,856,858,858,860,859,859,856,855,852,853,850,849,850,852,852,857,857,856,857,854,853,851,849,852,853,854,856,860,859,857,856,858,855,855,854,852,854,854,858,858,859,860,860,859,855,857,855,858,857,856,856,862,859,860,859,857,853,851,850,847,850,853,853,856,855,854,850,849,848,847,847,846,844,847,848,850,849,848,848,845,839,840,840,838,839,841,845,847,846,844,845,841,840,839,837,837,838,838,840,844,844,842,844,841,838,836,836,838,835,839,839,840,841,841,841,836,836,837,834,834,835,836,838,835,839,840,838,838,836,833,835,831,835,837,837,837,839,840,838,836,832,829,830,830,834,835,836,837,838,840,838,833,830,831,830,834,834,837,842,843,844,841,839,836,834,834,832,834,837,839,840,842,844,841,838,838,836,833,830,829,835,837,838,841,844,841,841,836,834,836,837,836,837,841,843,843,843,845,843,842,839,835,834,835,839,844,848,851,854,859,858,854,858,857,862,863,863,868,870,875,878,883,881,878,875,870,865,864,863,865,867,870,871,867,863,858,854,848,845,840,839,839,838,839,839,837,836,831,829,828,826,825,831,833,833,835,836,836,835,834,832,831,832,829,832,836,838,841,842,843,841,838,836,835,834,834,837,842,844,847,851,849,853,853,860,871,895,934,982,1035,1091,1153,1211,1260,1282,1274,1224,1145,1042,933,829,753,708,699,708,734,761,781,792,799,803,808,817,825,833,841,844,848,844,841,839,838,836,835,839,842,844,848,850,850,849,845,841,839,839,841,844,843,844,844,847,847,844,845,842,841,840,839,839,840,840,844,847,849,844,844,844,841,841,842,842,844,848,848,849,850,850,848,848,849,847,849,850,852,857,859,860,861,861,862,863,862,865,865,869,877,879,885,889,889,891,891,891,892,895,897,902,904,908,917,918,920,928,926,927,928,929,930,934,936,940,942,941,941,939,934,930,929,926,923,915,912,907,907,902,899,894,887,887,882,877,874,871,869,868,866,865,864,859,858,854,851,853,850,851,850,857,857,857,855,854,852,848,849,847,844,847,849,851,851,854,856,853,850,851,850,849,847,849,847,849,853,858,857,857,854,854,853,854,856,855,859,858,861,864,862,862,863,862,860,859,855,857,863,866,867,866,866,866,862,859,857,857,858,861,863,864,866,865,861,861,858,856,855,851,854,855,851,854,857,858,857,856,852,852,849,849,852,851,852,857,857,855,854,853,850,851,849,847,846,848,850,851,853,855,850,851,850,849,846,846,843,848,850,852,851,853,854,850,850,849,850,847,844,847,850,850,852,852,852,846,849,848,845,846,846,846,850,851,852,853,852,853,850,849,848,848,848,848,851,851,853,852,854,854,852,848,848,849,849,852,850,852,853,853,852,852,851,848,848,847,845,849,849,853,857,861,859,860,856,856,856,854,857,860,865,872,876,880,879,880,882,880,882,883,887,891,895,898,899,895,893,890,883,880,878,879,881,878,878,877,877,871,867,858,852,849,846,848,847,845,846,844,845,850,850,851,849,844,843,843,841,842,844,845,851,849,848,848,850,849,848,845,846,849,849,851,854,855,857,859,857,856,854,852,855,860,867,871,875,883,902,932,980,1036,1100,1165,1233,1292,1322,1311,1256,1157,1033,905,782,707,681,699,735,775,806,824,838,841,844,850,850,856,858,856,855,852,853,852,854,856,858,855,856,856,854,853,854,854,858,861,864,863,865,861,857,855,858,858,855,857,856,858,862,864,864,865,861,861,859,858,856,857,861,861,865,866,864,865,863,862,862,862,866,866,868,868,872,873,877,876,874,874,871,875,876,879,883,890,889,895,894,897,903,902,901,905,904,910,917,924,923,927,934,937,938,940,942,942,946,952,956,960,961,964,965,967,967,966,964,961,959,958,952,950,947,947,941,934,927,919,916,908,902,897,895,894,893,889,884,883,875,874,871,867,866,865,862,866,870,869,869,867,867,865,860,861,860,862,864,863,866,865,863,862,863,860,861,859,860,858,862,866,868,869,868,865,865,866,864,862,864,864,867,869,872,871,870,875,871,871,870,868,868,869,868,869,874,872,873,875,871,871,868,864,865,866,866,869,871,871,871,869,867,864,864,860,859,860,861,859,864,866,862,860,859,858,856,856,853,857,858,860,857,856,859,858,855,854,853,853,853,854,855,855,856,857,856,856,853,853,849,848,849,847,850,851,854,855,854,852,850,849,848,846,845,844,847,850,855,854,854,853,851,850,847,845,845,843,847,851,852,853,851,850,850,845,844,848,849,848,849,852,852,854,854,855,855,853,850,849,845,848,849,854,853,854,854,856,854,849,846,849,847,851,851,851,856,856,854,857,854,853,853,851,851,851,852,853,858,856,857,858,855,854,853,853,851,852,853,854,857,858,860,858,857,856,852,851,852,852,856,857,861,865,861,860,859,859,860,859,861,864,869,874,881,886,886,889,888,886,887,888,891,893,895,897,896,893,893,886,884,881,880,878,876,880,881,879,877,876,870,864,858,854,853,850,843,845,845,848,847,849,850,849,848,843,843,844,842,843,844,845,845,850,851,847,849,848,847,847,843,841,844,848,852,853,852,853,857,855,858,856,861,862,866,873,884,906,943,989,1043,1096,1152,1214,1272,1302,1300,1258,1176,1058,930,810,734,701,715,749,787,819,837,839,840,840,840,844,847,851,851,853,851,850,848,851,853,857,860,860,859,855,854,854,853,850,852,857,857,855,859,858,857,856,855,854,850,853,855,857,860,860,858,859,859,856,855,853,855,854,857,856,859,860,860,863,862,861,859,857,858,858,862,864,866,868,872,876,873,869,868,871,873,875,880,887,887,891,894,895,896,898,899,901,901,905,912,916,923,927,930,929,932,933,933,936,943,945,947,953,955,961,964,968,967,963,963,964,961,960,960,961,956,958,954,953,941,936,931,924,918,910,910,909,903,901,896,894,888,883,880,877,875,870,870,873,870,872,872,869,869,866,868,862,860,861,863,864,866,868,868,867,866,865,863,857,857,858,862,865,866,866,868,865,863,862,862,859,861,864,865,864,867,867,869,870,867,864,864,862,861,861,863,865,866,868,868,869,867,865,860,861,861,860,862,862,865,867,864,864,863,860,858,857,855,857,858,854,859,861,858,862,859,855,852,852,852,851,850,856,855,853,855,853,854,849,849,847,848,846,849,849,851,852,855,852,848,848,847,842,845,846,846,849,851,853,849,848,847,847,844,842,841,842,844,845,847,851,849,848,845,841,840,839,839,842,842,846,846,847,848,848,847,845,841,839,838,841,839,842,842,846,847,849,848,844,841,840,838,840,839,846,845,847,846,845,843,844,843,841,840,840,841,841,845,847,847,847,845,845,840,838,836,837,839,842,843,846,845,846,843,842,845,842,840,839,841,842,844,844,845,845,844,846,841,843,841,841,841,844,847,849,849,850,847,843,844,847,845,847,851,859,862,866,867,873,873,871,871,871,871,872,876,885,887,885,884,882,877,872,870,869,866,866,866,866,865,858,856,852,845,840,839,838,836,835,832,832,835,834,835,833,834,832,830,830,830,828,828,831,834,834,836,838,839,837,834,832,832,834,834,837,840,841,844,839,840,843,843,838,843,848,848,854,861,873,903,947,1001,1057,1117,1185,1243,1280,1283,1236,1152,1036,911,801,719,683,681,704,736,765,787,796,805,810,818,825,834,838,842,840,838,837,835,836,838,840,841,841,843,840,842,840,839,841,842,843,838,845,843,845,844,841,838,839,838,839,842,845,844,845,845,846,845,843,842,841,838,836,839,842,842,845,846,845,845,844,841,844,844,842,841,843,846,849,852,853,854,853,854,855,855,857,861,864,871,875,877,878,880,876,877,881,881,886,889,893,899,902,907,910,911,913,916,918,919,920,924,927,931,935,938,938,938,934,934,935,933,928,924,927,927,925,923,920,914,906,899,893,889,881,878,877,877,874,872
