838,838,841,838,838,837,834,834,833,832,837,839,841,841,844,841,841,842,839,839,839,843,842,846,849,858,856,862,864,862,865,862,863,865,868,872,875,878,874,871,868,865,862,861,859,859,860,859,859,859,854,853,848,843,837,829,824,828,826,828,827,828,826,827,824,823,822,821,819,820,822,824,824,826,826,827,826,827,826,821,823,822,822,823,828,831,833,833,831,830,832,830,830,832,834,840,841,843,850,855,857,874,900,943,993,1047,1107,1165,1224,1272,1289,1264,1205,1106,989,865,763,700,678,700,741,780,809,821,823,819,816,816,822,829,835,838,839,840,837,836,833,832,830,835,834,835,835,838,840,840,840,840,839,839,838,834,833,833,835,837,838,841,842,839,839,838,837,835,833,833,836,838,839,841,845,843,844,843,840,841,838,839,842,846,847,847,848,851,849,849,850,850,851,852,855,859,861,866,867,871,873,871,870,873,872,870,875,880,890,899,907,911,916,916,912,913,913,919,923,927,930,934,934,939,936,938,943,944,946,945,942,938,936,932,931,925,924,921,913,908,898,892,888,887,885,884,880,876,877,866,862,860,858,855,855,855,856,858,859,856,856,853,850,849,848,848,850,850,851,856,855,854,855,852,849,848,847,845,850,851,851,856,855,857,855,855,854,852,852,850,854,857,858,857,858,858,861,860,857,858,857,855,854,858,862,861,862,862,860,859,856,854,853,853,854,856,856,857,859,855,856,854,853,851,849,851,852,852,852,854,853,856,855,850,849,849,845,846,847,850,850,852,852,848,844,847,843,845,841,841,842,843,843,847,846,849,848,842,841,839,839,836,838,842,844,846,843,846,841,842,840,841,839,842,839,842,842,841,842,844,843,838,837,839,836,836,836,837,840,844,843,844,841,843,840,841,842,841,844,844,845,844,849,853,852,848,849,852,855,858,861,865,869,874,874,870,876,876,879,878,878,877,875,874,872,871,873,869,865,862,865,863,860,859,856,851,852,849,845,842,840,839,837,834,827,828,830,830,832,834,835,833,834,832,833,831,829,829,831,833,832,835,835,837,838,837,835,833,832,832,831,834,836,842,846,844,847,845,845,843,847,847,852,860,867,883,912,953,1001,1052,1104,1159,1213,1261,1280,1263,1207,1122,1014,900,799,727,694,695,717,748,779,796,803,812,815,824,833,837,843,844,846,842,841,840,843,846,850,848,846,843,841,841,839,839,843,846,846,849,850,852,849,848,848,847,846,844,844,846,847,849,854,853,853,850,849,846,844,845,847,847,852,852,855,856,858,854,857,854,852,854,856,857,860,860,864,865,869,868,866,863,871,871,874,879,882,885,890,891,894,894,897,897,901,906,911,913,916,920,925,930,934,932,935,934,935,935,940,944,949,951,952,951,950,947,943,942,941,938,935,934,929,927,922,917,917,908,902,893,890,885,884,883,882,879,879,878,875,873,867,865,861,861,863,863,864,864,865,862,862,862,857,855,858,858,858,860,863,864,863,864,863,861,861,859,858,858,856,859,862,864,868,868,867,867,867,864,862,861,866,866,867,870,873,872,872,871,868,868,870,871,869,870,873,871,876,873,873,871,873,873,871,866,867,868,873,872,873,873,873,872,871,870,867,867,867,866,867,868,871,868,873,871,869,867,865,862,865,869,869,871,870,871,868,868,866,863,862,861,859,860,860,867,870,871,869,867,871,869,864,863,865,865,867,867,869,868,868,868,865,862,862,858,861,862,864,864,868,868,868,866,868,866,864,863,866,864,863,862,865,867,873,874,878,880,882,881,883,884,887,889,890,891,895,897,900,902,901,901,898,894,894,892,895,895,894,893,890,886,882,877,871,864,865,863,864,862,862,861,857,851,850,849,851,850,855,856,859,859,858,855,853,852,852,848,850,855,856,856,860,860,861,861,860,861,859,859,860,860,862,866,868,872,872,873,870,869,871,871,879,895,925,967,1018,1068,1123,1178,1231,1280,1304,1297,1250,1171,1062,939,828,740,696,691,715,754,782,808,819,828,835,843,849,855,860,863,864,864,860,858,856,857,861,865,867,871,869,869,863,863,859,859,862,864,868,866,869,868,870,866,865,864,863,862,862,861,863,868,869,869,866,864,863,863,861,859,860,863,865,864,870,869,870,870,866,869,869,867,869,874,876,879,883,886,886,887,884,886,888,889,890,894,901,905,908,913,914,917,917,918,920,921,924,926,933,939,945,943,946,944,943,944,948,949,952,955,958,957,957,956,953,946,942,935,931,924,923,919,914,913,910,906,902,896,885,882,876,876,872,873,870,873,871,871,870,866,864,863,862,860,859,860,863,865,863,866,863,859,857,858,857,857,860,859,860,861,863,864,863,863,864,863,862,863,861,864,865,868,869,868,870,867,864,866,864,863,864,865,868,870,873,871,871,869,866,867,865,866,865,866,867,871,871,871,870,870,869,864,861,858,861,862,863,865,865,865,865,862,862,858,857,857,853,854,857,858,859,862,862,858,856,856,855,855,855,855,856,857,860,860,859,856,856,854,854,852,854,855,856,858,860,861,861,856,856,856,854,853,856,856,857,859,860,856,856,855,853,852,851,851,850,854,857,855,857,859,857,858,856,855,852,852,853,855,859,861,860,861,862,859,856,856,853,851,853,854,854,857,858,857,860,856,855,852,850,853,853,853,856,857,859,859,859,860,856,857,856,856,852,855,860,863,869,873,876,878,878,879,878,876,878,884,890,892,894,895,896,892,884,882,882,881,880,880,878,881,885,884,883,879,874,867,862,857,852,851,851,851,851,850,849,847,845,840,840,840,839,839,840,843,848,849,847,844,843,843,843,844,842,842,842,848,850,850,851,850,846,847,845,846,845,848,851,855,858,860,861,861,862,862,865,873,888,918,959,1009,1062,1112,1169,1225,1270,1292,1275,1225,1134,1019,901,797,732,711,732,766,803,825,837,840,838,843,845,851,859,859,859,859,855,854,852,853,849,853,855,857,859,860,861,858,857,855,851,854,854,856,859,858,862,863,862,862,861,857,856,855,855,856,860,861,865,863,862,862,860,863,862,860,862,864,867,869,869,871,871,871,868,870,871,871,870,873,875,880,883,884,887,888,888,884,888,888,890,895,901,906,908,913,916,918,919,920,922,924,926,930,935,940,944,952,956,956,952,954,953,953,956,959,959,959,958,957,954,950,940,932,928,924,923,917,912,910,910,906,904,898,893,885,885,882,880,876,880,877,879,879,881,878,874,874,871,869,870,871,873,875,876,876,878,875,873,872,867,868,869,871,874,875,877,876,875,875,873,873,870,870,867,867,868,874,877,878,878,878,871,872,871,872,874,874,876,877,880,879,878,878,876,877,872,874,873,872,872,875,877,876,878,875,874,871,869,866,866,867,868,871,872,871,870,870,865,865,865,864,861,864,866,866,869,867,867,869,865,862,862,858,859,859,862,864,867,864,866,864,863,862,860,859,856,860,860,859,863,865,867,863,861,860,860,855,856,859,858,862,861,862,860,862,859,857,856,855,855,854,855,858,860,858,857,860,860,856,856,854,853,855,855,858,862,860,860,858,858,857,855,849,850,853,855,856,859,859,860,858,856,854,852,849,852,851,855,857,859,862,862,859,857,854,854,852,852,854,855,855,859,861,860,859,861,858,856,857,856,855,857,858,861,862,862,860,861,855,858,857,856,857,858,860,857,862,861,861,861,858,857,856,857,855,855,861,864,865,864,862,859,857,856,856,855,856,859,862,863,862,859,864,862,858,857,856,854,858,858,858,862,862,861,860,859,856,855,853,858,858,861,864,867,869,873,875,876,879,882,881,880,883,885,888,892,894,896,896,895,890,887,882,881,880,880,880,882,883,882,880,874,869,866,859,854,853,852,852,851,853,852,848,845,843,842,842,840,844,841,842,840,842,843,846,843,842,843,841,838,842,844,847,848,848,851,850,848,848,848,849,847,850,852,852,858,858,860,862,865,868,876,898,928,974,1026,1075,1127,1183,1233,1267,1262,1226,1151,1052,939,835,757,717,712,735,768,798,816,821,823,825,825,833,838,847,852,854,855,853,850,848,845,847,848,848,851,853,856,856,856,853,852,851,846,849,850,851,853,851,855,856,856,856,855,852,851,849,850,850,851,853,852,854,854,854,853,849,851,850,848,851,852,854,856,858,860,856,858,859,856,852,855,857,860,865,870,868,872,876,878,877,878,879,878,883,883,888,895,895,899,903,901,903,903,907,908,912,916,919,925,927,930,933,936,932,931,932,934,937,939,942,942,944,942,936,929,923,919,914,910,906,906,903,896,896,894,889,885,881,878,871,870,871,868,868,870,870,869,866,865,863,862,860,859,858,860,861,863,866,863,863,866,864,856,855,858,860,863,866,870,870,867,866,866,862,861,860,859,860,865,866,870,868,870,870,869,868,869,868,866,868,864,867,870,872,872,869,868,867,864,860,861,860,863,867,865,867,867,865,866,864,861,859,858,857,858,863,864,865,863,858,860,858,854,852,851,852,855,855,856,860,859,859,856,854,851,855,850,849,850,850,856,857,858,858,857,856,856,852,851,851,854,855,859,860,856,855,856,854,851,852,851,851,852,855,854,857,857,858,855,853,850,849,849,848,850,854,856,857,862,857,857,853,849,848,850,851,849,855,857,859,862,860,859,853,853,851,850,851,853,854,857,855,858,860,860,859,858,856,851,854,858,860,860,862,861,861,859,856,854,855,855,856,856,858,862,861,861,864,861,860,858,858,857,858,859,861,863,864,866,864,861,859,861,855,858,858,858,860,863,866,866,867,861,859,856,860,860,859,863,864,863,867,867,869,866,863,860,863,858,859,863,866,868,874,874,878,881,880,881,881,883,885,890,892,899,903,908,908,902,897,889,885,883,884,887,889,890,892,889,890,882,876,868,865,858,858,861,860,861,864,859,860,856,855,854,850,850,850,851,854,854,850,854,853,854,853,851,853,851,853,853,853,857,858,859,861,860,857,854,854,852,854,858,861,866,869,871,869,873,871,873,888,921,967,1019,1075,1139,1201,1254,1292,1295,1259,1188,1088,971,857,769,718,706,724,756,790,813,825,831,835,840,846,856,862,868,871,871,871,866,866,863,863,864,868,867,871,872,870,871,871,871,869,865,865,866,864,865,866,867,870,871,872,871,869,867,864,866,866,869,869,870,873,873,873,874,871,868,866,865,868,870,872,873,876,876,876,878,877,874,876,873,877,878,881,886,889,891,892,891,890,891,894,893,900,899,906,910,913,915,916,917,918,918,921,921,926,925,928,935,941,942,943,940,941,938,939,937,938,940,937,936,939,934,932,926,921,914,909,905,901,901,898,898,897,895,894,889,886,882,879,879,875,878,879,880,883,886,882,877,878,875,871,872,872,871,872,875,875,879,877,878,874,874,872,871,873,875,875,878,880,882,880,878,875,878,873,873,876,878,881,884,884,886,887,884,882,879,880,882,880,880,882,884,884,885,884,883,881,877,876,874,875,874,875,878,880,880,877,877,873,872,870,870,867,869,868,870,869,872,873,871,871,866,864,863,867,866,868,870,869,870,870,868,867,867,865,864,861,863,866,867,866,867,867,866,862,862,862,860,859,861,861,864,866,865,863,863,859,857,858,853,854,861,857,859,860,864,863,863,861,859,853,855,857,857,858,861,865,864,864,864,860,859,856,855,857,856,859,860,861,864,863,862,863,860,858,856,857,860,861,865,865,865,864,864,861,862,860,861,859,858,860,861,867,865,864,865,863,859,861,858,858,856,859,861,866,864,866,862,863,861,860,856,857,860,862,865,866,865,866,864,862,859,858,858,859,860,862,864,865,864,865,865,862,859,860,856,857,857,860,864,863,863,863,863,862,859,858,856,857,857,859,861,865,865,864,863,860,861,861,862,859,863,862,866,869,868,875,871,873,876,878,879,879,883,885,889,890,894,893,894,897,891,894,889,884,883,884,884,889,888,887,885,883,878,872,868,864,861,858,859,857,857,857,853,851,846,847,849,847,848,849,851,851,849,851,849,850,850,849,847,848,849,850,853,853,853,855,856,854,851,851,849,849,852,852,858,860,863,863,862,867,868,871,877,894,920,965,1018,1071,1127,1182,1237,1274,1289,1272,1214,1125,1017,907,808,746,723,736,771,809,834,845,845,842,842,846,853,859,861,863,862,858,856,854,853,854,856,859,859,858,859,860,860,857,856,855,853,853,853,856,857,859,859,860,857,854,853,852,852,852,856,858,860,862,863,861,863,861,858,858,852,853,855,861,862,865,865,865,865,865,867,864,864,865,863,868,869,873,875,878,880,875,878,878,878,879,883,888,891,895,898,904,903,906,905,907,907,913,914,919,922,927,928,934,929,929,933,933,933,934,939,941,943,947,942,941,939,934,929,924,923,919,914,912,912,906,905,902,896,892,887,880,878,875,872,872,874,876,873,873,871,868,865,864,863,863,863,867,868,868,869,869,868,867,863,863,863,861,865,861,867,872,870,871,874,867,868,862,865,866,867,871,871,874,874,873,872,871,871,870,866,870,869,870,871,873,871,873,872,870,865,865,863,864,864,866,866,865,865,866,865,865,862,860,858,859,858,860,862,863,864,865,861,861,858,858,855,854,856,856,859,862,862,860,858,854,851,853,853,853,853,856,856,856,856,859,856,856,853,851,852,852,850,852,857,856,856,857,853,855,855,852,852,851,852,854,856,857,857,857,854,855,853,851,847,847,848,848,855,856,858,858,856,853,852,850,851,850,850,851,852,856,856,856,856,853,851,848,851,846,851,853,854,855,856,856,857,855,851,850,851,849,850,851,854,856,856,855,857,852,851,852,851,849,849,852,850,850,854,852,853,851,847,849,847,846,848,849,851,853,852,852,853,848,847,847,846,847,848,851,851,852,853,854,853,850,846,848,844,846,843,845,848,851,850,849,851,848,847,847,845,845,846,848,848,853,852,852,851,849,849,847,846,847,850,852,860,862,867,871,873,873,869,870,868,871,871,878,885,889,889,888,884,881,878,872,870,868,867,870,874,874,875,871,866,860,852,845,842,837,836,838,839,835,839,839,837,837,835,835,834,834,836,836,837,838,842,844,837,836,834,835,832,833,834,834,840,842,845,846,846,843,841,841,841,843,848,846,850,857,861,870,889,919,961,1005,1052,1105,1162,1213,1245,1248,1202,1128,1029,921,820,748,712,709,732,763,791,809,816,821,826,831,835,840,843,839,846,845,844,845,848,851,852,851,846,846,844,842,842,844,844,847,847,847,848,848,847,845,845,845,845,843,847,848,848,849,849,848,847,846,846,846,846,846,846,849,850,850,852,850,847,845,847,846,848,850,853,854,859,859,857,857,858,855,857,856,860,865,863,866,869,871,872,875,872,873,877,874,878,884,889,890,894,894,899,898,898,896,897,901,903,908,911,916,919,920,922,923,923,921,922,919,919,921,926,927,927,923,921,915,909,904,902,896,894,891,887,887,885,885,880,876,874,870,868,861,861,864,863,860,864,861,861,857,858,856,854,855,852,856,856,857,857,856,856,856,856,855,853,853,852,856,858,860,862,862,861,860,858,857,859,854,856,857,858,858,865,861,861,860,861,859,858,856,857,860,863,864,864,864,864,861,859,858,858,858,857,858,857,860,861,862,858,857,854,851,852,851,851,849,854,856,857,856,855,854,853,851,850,847,846,850,850,853,854,854,852,851,848,848,848,848,845,850,851,853,852,854,851,851,847,849,849,849,850,852,852,851,853,852,853,851,850,850,846,845,848,847,847,850,852,849,848,848,848,850,846,849,849,849,849,849,851,851,852,850,851,850,848,847,848,847,851,850,855,852,851,851,850,848,845,845,848,847,849,851,853,852,853,851,850,846,846,847,848,851,851,854,855,853,854,854,852,849,851,850,847,851,850,850,852,854,850,850,849,850,846,848,846,850,854,855,860,858,859,856,857,853,857,855,860,866,871,876,879,879,878,879,881,882,882,888,888,888,887,884,882,880,879,876,876,875,874,876,875,872,865,863,860,852,853,847,848,847,843,839,838,839,842,843,843,843,841,841,839,839,837,838,837,838,841,838,844,845,842,843,844,842,842,841,840,843,844,850,850,851,852,853,851,852,850,853,849,855,858,861,872,890,920,962,1008,1057,1106,1165,1220,1264,1278,1249,1180,1080,956,834,740,690,682,706,739,773,800,815,827,831,837,842,843,843,845,844,843,844,847,849,850,850,849,847,846,845,843,842
