829,827,827,833,831,834,836,836,834,832,829,832,829,827,829,831,831,830,832,830,832,832,832,832,832,831,830,833,836,835,836,835,831,831,830,828,827,828,829,835,833,836,839,837,836,833,834,833,832,829,830,833,837,844,843,846,851,848,850,846,851,853,856,861,865,867,871,871,872,867,866,861,856,852,853,852,855,856,854,848,846,837,834,832,832,829,829,830,831,832,831,832,829,828,825,821,819,818,818,822,822,825,824,821,825,823,821,821,821,818,821,823,825,828,828,830,832,834,839,849,863,883,906,933,960,980,987,973,942,895,842,793,747,710,682,673,681,704,724,744,762,773,783,792,806,818,827,828,833,836,837,834,839,838,836,833,834,837,833,837,838,842,845,842,845,845,845,844,839,843,844,847,851,854,853,849,852,850,850,847,846,849,852,854,856,858,860,862,861,862,857,855,858,859,860,860,867,867,871,874,876,876,876,874,876,878,881,885,888,892,896,898,900,904,907,906,911,914,920,923,926,931,935,937,941,947,947,946,947,950,953,958,960,965,967,968,966,965,964,960,959,959,957,959,954,955,955,947,942,937,931,921,913,907,898,895,896,894,888,883,877,870,860,859,852,851,851,849,847,847,850,847,846,842,841,840,833,832,836,835,840,838,839,837,836,837,837,834,836,834,835,833,835,838,840,835,833,833,831,828,830,828,831,832,836,835,836,838,836,835,832,829,830,829,824,827,827,828,833,833,831,832,829,827,827,825,826,826,827,827,828,822,821,819,819,814,815,817,820,817,820,823,825,823,820,819,818,817,816,813,813,813,818,820,819,816,815,815,812,814,814,812,812,812,812,819,817,819,814,815,813,812,812,809,808,817,817,819,821,819,816,814,812,808,810,809,810,813,816,818,819,819,815,816,814,809,812,810,811,810,812,815,817,817,818,819,815,812,813,812,811,814,813,817,817,816,815,811,811,808,809,810,810,810,816,818,820,820,818,815,814,811,812,809,807,812,814,817,816,816,817,817,813,812,810,813,814,814,814,819,820,821,819,818,817,818,817,817,819,819,818,824,823,825,823,822,820,818,816,814,817,819,822,824,822,827,826,829,832,835,833,835,834,834,838,841,847,847,851,848,849,848,847,846,846,844,844,844,841,838,840,837,834,826,819,819,816,813,817,821,820,821,817,816,814,812,809,808,806,807,812,812,815,814,816,814,814,810,811,813,813,815,818,821,821,823,822,822,831,836,850,871,894,921,950,975,987,983,952,906,850,792,739,690,657,639,643,657,684,712,729,744,757,767,779,794,806,818,824,826,827,825,825,824,824,825,823,828,831,832,836,838,841,844,840,840,839,839,841,836,838,839,844,846,851,849,850,846,847,845,847,847,849,850,852,858,858,859,858,856,858,857,859,863,862,864,865,871,872,876,874,877,875,874,879,880,883,890,893,896,901,902,906,906,906,908,911,912,914,923,927,933,940,942,946,945,947,951,949,951,954,960,957,965,963,962,961,961,962,956,953,955,947,950,947,947,946,938,934,927,922,915,907,901,896,895,893,888,887,883,878,874,869,866,858,857,853,857,854,856,857,851,852,850,845,846,845,844,847,847,849,851,851,850,850,850,846,847,841,840,843,842,844,848,851,851,849,850,849,847,847,848,847,847,848,850,849,852,849,851,848,847,846,843,848,845,849,851,853,850,850,848,843,841,842,841,842,841,843,843,840,838,837,839,836,836,832,834,832,834,835,840,841,839,839,837,836,835,833,832,832,836,837,838,837,838,836,834,834,829,828,831,830,834,832,838,834,835,834,831,833,830,828,828,831,832,833,837,836,834,835,832,834,833,831,833,832,833,835,837,836,839,837,835,835,832,832,833,834,833,834,835,835,837,837,834,832,833,830,830,832,834,835,836,840,841,839,837,834,830,831,831,827,830,833,836,840,839,838,838,838,837,832,834,836,838,839,842,838,837,837,836,833,832,833,832,834,835,839,841,843,845,842,838,837,836,836,836,834,836,837,838,839,844,841,840,843,840,838,838,841,843,841,848,851,852,852,858,857,856,856,856,856,861,865,871,874,876,874,872,868,865,862,858,857,856,859,863,859,860,854,851,843,842,836,834,833,833,833,836,840,839,838,836,831,831,829,829,831,834,834,833,836,832,836,834,834,833,831,830,831,835,834,837,840,845,849,857,867,891,909,937,964,992,1006,1007,996,965,916,862,807,755,717,698,691,704,726,752,774,786,801,812,821,826,829,839,844,846,852,851,851,852,852,852,853,851,852,853,853,854,856,857,861,860,862,858,859,860,859,859,858,858,865,860,866,866,864,866,865,864,863,866,867,869,871,876,877,878,877,875,876,874,875,878,877,883,888,891,895,893,894,894,895,896,899,901,904,907,911,914,918,923,927,930,933,932,936,938,943,948,953,957,958,964,966,969,972,970,973,973,974,979,982,985,988,987,987,988,982,980,976,973,969,965,964,963,957,952,943,936,930,922,913,909,902,900,894,893,887,884,878,873,870,864,861,858,858,860,860,862,862,861,860,857,854,851,850,848,846,850,852,851,854,855,854,853,855,853,850,851,850,852,853,856,857,857,855,854,851,849,851,852,851,854,857,856,860,858,856,855,852,854,852,849,849,848,851,851,852,854,853,851,848,850,848,846,848,848,849,848,850,851,851,846,845,841,842,838,843,841,841,840,841,842,843,839,838,839,835,835,835,837,836,840,840,835,839,843,836,836,835,835,831,833,836,841,840,838,838,838,835,836,832,836,835,836,838,836,839,834,838,839,838,835,833,831,833,832,832,836,839,840,841,841,837,836,829,829,832,833,834,836,838,839,837,836,835,834,835,831,835,835,835,838,840,841,840,835,832,830,831,828,828,831,837,836,839,839,838,837,837,834,833,831,834,833,840,838,836,835,835,836,833,830,831,830,829,835,836,835,838,839,838,835,833,829,829,828,829,832,834,832,835,837,836,836,833,833,833,830,831,831,833,833,834,835,835,836,834,833,832,831,831,832,834,838,841,840,838,840,838,838,838,838,841,846,850,851,854,858,855,860,862,864,867,864,866,864,867,868,871,865,865,860,861,858,855,852,849,849,846,843,840,835,834,836,835,832,834,829,829,831,835,835,834,834,833,831,829,829,826,825,827,824,828,832,836,835,834,835,833,833,834,834,838,845,855,871,895,916,939,965,984,992,986,958,918,869,820,772,730,693,673,672,686,704,727,741,758,774,787,806,822,829,835,842,840,839,834,835,836,835,841,844,849,847,851,851,850,851,851,848,847,849,854,854,857,858,857,859,856,859,858,856,856,860,861,867,868,869,870,869,867,868,867,866,864,866,870,874,877,877,879,880,880,879,879,881,884,890,891,896,903,903,905,907,908,911,912,914,916,923,924,930,939,940,947,947,949,951,949,951,957,962,967,972,976,975,976,980,980,980,979,981,979,978,976,978,979,973,970,967,963,955,950,946,938,936,931,928,923,917,914,908,899,893,885,881,876,876,873,873,873,871,867,862,861,856,852,851,852,851,853,857,855,857,853,852,852,848,847,845,846,850,852,853,857,858,854,855,851,848,848,848,847,851,850,853,857,858,854,854,851,851,849,848,848,848,849,852,856,853,853,853,851,848,850,847,845,847,851,852,852,851,850,848,846,843,841,840,837,841,844,846,848,846,849,844,841,839,837,835,834,834,836,840,841,842,841,837,839,838,834,829,833,835,834,837,839,838,838,840,838,835,832,832,834,835,837,840,840,839,840,840,838,836,836,834,835,834,836,838,842,841,835,836,836,836,836,831,832,836,839,839,842,840,839,838,836,837,837,836,837,837,839,841,842,839,839,839,837,836,832,832,835,836,839,842,843,839,841,835,839,843,841,837,835,839,842,841,842,844,845,846,843,840,841,841,840,841,843,845,848,847,846,846,842,840,839,840,839,842,842,845,848,847,847,849,847,845,844,840,840,843,843,845,851,848,848,847,846,844,846,847,846,850,851,855,858,861,863,862,867,864,864,863,862,867,871,876,879,881,883,886,880,876,874,873,869,865,867,867,870,868,868,864,858,854,851,848,846,847,848,849,850,847,847,846,843,839,838,836,835,840,842,843,845,847,844,844,843,844,838,837,836,841,847,847,854,853,856,862,873,892,911,942,972,1000,1019,1017,999,954,901,843,786,738,706,695,703,728,754,777,796,812,818,829,837,845,847,849,852,853,855,854,855,855,857,856,859,860,860,858,859,861,866,865,869,869,873,870,871,868,867,866,869,872,870,873,875,876,875,878,878,877,876,875,876,875,882,885,888,888,891,889,887,889,890,889,889,894,898,903,907,912,912,914,915,911,912,916,921,922,926,933,940,945,949,952,952,954,955,958,959,965,974,977,981,984,984,986,985,985,987,983,988,988,984,988,987,985,983,980,974,965,961,949,943,942,937,932,930,925,918,911,905,902,896,889,884,880,877,875,875,874,874,867,865,865,863,861,857,853,855,859,861,861,862,862,857,856,854,854,854,858,857,858,862,861,862,862,862,861,860,855,853,858,858,856,860,860,862,861,864,861,859,858,857,858,859,859,865,860,859,859,857,856,855,851,852,855,857,857,859,859,854,855,850,850,851,847,847,850,846,849,847,852,851,848,846,846,842,840,839,843,847,848,846,845,842,841,845,843,843,842,840,840,839,842,847,849,848,846,844,840,840,835,836,837,840,844,848,847,847,846,844,843,839,840,839,837,840,838,843,841,843,845,840,842,841,839,840,839,841,846,845,844,842,841,843,842,840,838,836,841,841,843,847,844,847,846,841,844,844,841,840,843,842,843,845,844,845,845,843,838,837,836,836,838,840,842,848,844,844,843,841,840,839,838,840,839,842,846,848,847,847,845,843,841,841,841,841,836,838,842,843,843,841,841,842,843,842,842,841,840,845,842,843,843,842,841,844,841,841,840,843,842,843,846,848,851,849,846,847,843,843,844,844,845,849,850,853,860,861,864,865,864,865,863,863,865,870,875,879,879,877,879,878,875,870,867,865,864,861,868,868,864,856,852,847,841,839,834,835,839,842,843,843,842,841,840,836,832,830,831,827,831,834,834,835,836,838,834,834,835,834,833,834,836,835,839,839,842,848,856,862,878,892,915,944,972,988,992,976,939,892,834,780,737,701,683,685,702,724,745,771,784,799,812,823,828,833,836,837,839,837,839,840,843,843,847,849,849,849,849,851,851,854,855,857,862,859,863,859,859,859,856,856,857,856,860,864,866,865,864,863,861,863,863,863,861,866,864,871,871,872,873,872,874,871,872,876,878,882,885,889,890,893,895,893,897,892,896,900,905,908,914,922,923,928,933,936,936,940,943,944,950,953,958,964,968,972,975,975,976,976,978,978,979,981,983,983,984,981,981,976,976,969,966,961,959,953,951,949,944,937,930,924,914,907,900,895,891,887,886,881,879,878,874,867,867,862,858,851,852,852,852,855,854,854,849,849,849,840,846,844,846,846,848,851,852,852,850,849,847,843,843,844,845,848,848,849,847,854,853,852,852,849,848,844,844,847,847,848,850,848,849,848,848,845,846,844,845,847,845,846,848,847,846,845,841,840,837,838,839,839,842,842,843,841,839,839,840,836,834,833,833,836,836,836,837,837,836,835,835,831,830,833,834,835,837,838,837,831,837,832,832,830,827,828,827,830,833,833,831,835,831,830,828,827,828,829,829,830,831,833,834,833,834,833,832,830,830,830,831,830,829,835,831,833,835,832,828,827,827,827,828,827,832,832,834,835,834,831,826,827,828,827,827,829,831,833,831,837,834,831,832,830,829,827,831,830,827,827,830,837,836,835,835,834,830,831,833,833,834,836,833,839,838,834,833,832,829,830,830,833,835,839,836,837,837,838,835,832,832,833,830,836,836,838,840,840,840,839,837,835,834,832,834,835,840,837,842,845,844,842,845,847,849,851,855,855,858,859,861,863,861,866,865,867,869,867,869,870,868,870,865,863,864,861,857,851,849,844,841,838,836,835,837,839,839,836,835,834,831,827,830,831,832,833,835,838,838,831,830,827,827,827,829,830,831,834,837,838,836,839,838,837,839,842,854,866,881,905,929,957,983,994,996,973,932,883,829,779,734,702,686,692,713,736,752,771,786,798,813,828,836,843,848,845,846,846,846,842,843,844,846,849,851,850,851,851,854,855,855,856,855,853,854,854,858,862,862,863,862,862,859,864,861,864,865,869,868,872,874,873,869,875,872,870,870,869,872,877,878,881,886,886,887,888,888,889,890,893,893,897,901,906,909,912,913,914,917,919,920,925,927,935,939,944,950,952,955,957,958,960,961,965,968,976,977,979,983,984,984,980,979,975,973,970,970,965,962,959,953,953,950,942,937,932,926,919,914,908,907,903,896,890,886,884,879,874,870,867,866,867,868,867,865,863,862,858,858,855,853,851,849,853,853,856,857,857,855,853,855,850,847,849,851,852,856,852,853,856,856,854,855,852,851,850,852,853,857,857,860,856,856,857,855,853,850,848,852,852,855,856,859,859,856,856,852,849,852,850,850,851,852,851,850,850,851,849,845,846,841,842,843,844,845,846,846,846,846,844,844,840,838,836,840,837,842,841,844,842,843,838,838,838,836,834,834,836,837,840,840,841,841,840,838,836,837,835,836,838,836,837,839,841,837,835,831,832,830,833,832,836,838,840,838,841,840,837,837,834,837,835,836,835,837,836,842,843,843,840,837,830,833,829,828,830,839,838,839,839,839,839,835,835,834,836,834,837,838,841,839,840,839,834,837,833,834,829,834,834,835,838,840,841,841,841,834,838,838,837,839,838,839,840,840,840,837,839,836,835,836,838,836,840,842,845,847,845,847,843,840,840,838,837,835,836,839,841,843,845,844,846,843,839,843,840,841,842,845,847,847,848,847,844,843,842,843,841,843,844,846,855,858,857,858,858,859,860,860,858,860,861,865,867,875,876,878,878,876,875,871,868,867,867,865,868,865,864,862,858,854,849,845,842,844,843,844,847,844,846,845,841,839,832,831,831,832,833,833,838,839,841,840,838,834,833,836,834,836,839,842,841,842,842,842,842,842,844,847,858,870,891,914,938,965,993,1008,1007,989,953,904,852,797,752,714,701,702,720,744,763,782,798,809,819,827,837,844,849,853,851,852,847,846,846,849,848,850,849,855,857,854,860,863,863,856,856,855,855,859,860,860,868,868,868,868,869,865,866,865,865,868,870,872,876,876,877,876,872,875,876,875,872,877,878,880,880,883,886,889,888,889,889,889,886,891,894,898,903,906,908,912,913,911,916,915,918,923,928,929,936,941,942,947,949,946,955,956,961,964,965,970,976,977,981,981,980,979,976,973,976,977,978,978,979,981,970,968,960,956,948,942,935,929,927,919,918,915,904,906,899,893,885,881,874,871,872,871,872,871,866,862,857,856,851,850,849,851,851,853,853,856,856,858,851,851,850,849,846,845,844,845,848,854,852,854,852,853,854,850,849,846,849,852,853,852,850,853,854,856,854,852,848,854,853,854,854,856,855,851,850,845,843,843,840,842,846,851,850,853,854,853,851,848,844,843,840,841,841,842,844,847,846,845,842,842,841,841,841,842,841,843,844,846,846,843,845,840,839,837,836,838,841,842,845,844,843,843,841,837,836,832,830,833,836,836,840,844,842,838,841,836,835,835,834,831,837,836,834,838,839,838,836,832,835,834,831,834,835,837,838,840,839,838,837,837,834,832,830,828,832,832,833,838,840,838,836,835,834,833,833,835,834,835,835,838,840,840,837,837,837,833,833,833,836,838,840,841,840,836,833,832,831,835,834,833,837,839,841,844,838,842,839,838,837,836,836,835,834,838,841,845,842,839,839,841,840,840,833,840,839,841,843,846,845,841,838,837,836,835,830,835,837,841,843,844,846,844,841,843,839,839,842,841,844,848,850,853,852,856,858,858,855,858,858,861,868,872,874,877,875,873,871,868,864,859,858,858,858,858,861,857,851,847,840,842,837,836,836,835,835,838,839,841,840,834,833,835,830,829,827,829,829,833,834,835,836,836,835,835,833,834,836,834,837,836,838,845,847,858,870,884,901,924,947,970,983,982,959,923,869,816,763,720,685,668,668,683,708,736,753,774,784,796,812,822,832,838,838,838,840,840,842,846,851,848,850,846
