1002,1001,1002,998,999,1000,1007,1011,1008,1007,1008,1008,1008,1013,1013,1014,1014,1016,1017,1021,1016,1013,1010,1010,1015,1024,1025,1025,1024,1028,1028,1031,1031,1029,1028,1030,1034,1037,1037,1035,1036,1036,1038,1041,1041,1036,1038,1036,1040,1041,1042,1039,1037,1033,1032,1031,1030,1028,1025,1024,1018,1018,1014,1008,1009,1006,1006,1010,1010,1010,1004,999,997,996,994,995,997,998,1000,1000,999,993,990,985,985,989,992,994,992,990,988,987,987,983,984,987,989,994,994,991,983,979,976,977,979,976,977,978,979,984,982,977,971,973,975,978,977,976,975,973,972,974,975,973,972,973,975,981,980,979,979,976,978,977,977,975,973,973,978,981,985,985,982,980,981,982,981,979,980,981,985,989,986,983,985,981,987,988,989,987,987,988,988,988,983,981,977,979,982,989,991,994,995,993,991,992,996,997,999,1000,1000,999,996,990,988,984,984,989,991,990,989,985,985,985,982,979,975,976,978,979,976,970,968,969,970,975,974,969,965,965,968,970,969,972,969,974,978,981,983,987,989,988,992,995,990,987,986,984,990,996,998,996,996,992,994,996,994,997,996,994,998,1002,1001,1004,998,993,994,992,990,988,979,968,968,967,972,978,986,999,1012,1027,1040,1049,1053,1064,1087,1123,1152,1176,1178,1168,1157,1144,1111,1074,1046,1022,1011,1004,998,997,994,993,995,997,995,993,992,988,992,997,997,996,994,996,998,1001,1002,999,1000,998,998,1004,1003,1002,1004,1000,1005,1006,1003,1002,1001,1002,1005,1007,1008,1011,1009,1007,1011,1010,1011,1010,1008,1006,1011,1016,1016,1016,1012,1009,1013,1012,1015,1015,1016,1017,1022,1026,1023,1021,1016,1016,1017,1017,1020,1025,1024,1027,1029,1030,1026,1024,1022,1023,1029,1033,1033,1031,1030,1033,1031,1033,1028,1028,1030,1029,1032,1038,1033,1032,1026,1026,1025,1026,1024,1022,1020,1015,1016,1017,1011,1008,1003,1000,998,999,998,994,992,991,988,990,986,984,981,979,979,979,980,976,976,977,977,980,977,974,972,970,973,973,975,974,976,975,975,976,972,967,964,965,967,971,971,971,966,965,964,961,960,957,960,957,957,964,965,961,956,954,953,953,951,954,957,953,958,960,958,953,947,949,951,955,955,958,954,954,958,957,955,952,951,947,955,955,955,954,951,950,955,957,957,955,957,955,958,961,961,960,958,957,960,962,958,959,957,957,961,966,964,962,958,953,956,958,956,961,963,966,968,971,972,968,966,964,968,970,971,971,969,964,965,963,957,956,955,957,960,962,962,953,950,946,944,945,945,947,945,942,943,943,940,938,934,931,936,939,940,943,941,940,943,945,944,946,949,952,959,963,959,957,955,956,956,963,963,965,966,965,967,968,968,966,964,965,964,968,969,968,965,963,966,966,957,949,935,927,918,922,927,933,943,952,962,972,976,983,994,1009,1036,1074,1110,1136,1147,1143,1128,1109,1080,1051,1024,1005,995,988,981,976,972,973,979,981,984,983,978,978,979,979,979,977,979,976,979,984,983,983,981,978,978,984,983,986,988,985,986,987,987,986,985,984,989,990,990,989,992,989,991,995,996,995,994,993,997,999,1000,996,999,998,1002,1004,1002,1000,1001,1001,1006,1009,1009,1011,1010,1004,1008,1012,1010,1010,1013,1011,1017,1023,1022,1024,1017,1017,1019,1019,1018,1021,1022,1024,1029,1032,1032,1027,1022,1019,1023,1026,1024,1023,1023,1021,1020,1018,1015,1008,1002,1002,1002,1004,1007,1003,999,993,989,987,985,984,981,978,981,984,983,984,981,977,975,976,974,971,971,970,971,975,975,972,971,968,969,969,970,968,966,964,966,967,969,969,964,964,963,969,963,963,963,962,961,967,964,966,962,962,964,962,962,959,957,955,957,957,958,959,956,956,959,961,960,955,955,952,953,955,957,958,958,959,958,959,955,953,953,950,955,959,959,964,962,958,959,961,957,957,955,954,957,965,965,961,964,962,965,969,963,961,957,957,959,966,965,971,969,970,973,972,972,971,967,962,971,977,981,985,983,988,988,994,995,993,994,993,994,998,999,998,997,997,998,1000,998,998,992,987,988,990,984,983,976,973,972,972,969,967,967,966,970,972,968,969,964,963,964,966,964,963,958,961,963,966,963,961,961,957,959,961,960,961,962,963,966,969,966,965,963,963,963,961,959,959,959,964,970,979,980,979,979,979,979,981,979,975,977,975,978,985,985,987,987,983,985,988,987,985,984,982,984,988,988,988,986,986,987,983,975,967,955,948,947,952,958,965,974,986,996,1005,1012,1019,1019,1018,1028,1035,1042,1055,1077,1098,1124,1149,1169,1174,1171,1162,1154,1144,1128,1097,1071,1051,1041,1028,1015,1005,1000,996,996,1000,1000,999,998,996,998,1001,999,994,993,995,998,1003,1001,1002,1001,1000,1000,1002,1003,1001,1002,1000,1004,1010,1012,1012,1010,1012,1009,1013,1009,1009,1006,1008,1008,1012,1016,1017,1016,1012,1015,1018,1016,1011,1013,1009,1013,1019,1022,1023,1023,1021,1023,1024,1023,1019,1015,1013,1015,1017,1020,1020,1023,1025,1030,1034,1031,1028,1025,1024,1025,1031,1031,1030,1029,1030,1038,1041,1040,1039,1038,1036,1037,1042,1043,1043,1042,1043,1046,1049,1051,1052,1049,1049,1047,1051,1053,1053,1051,1053,1055,1058,1057,1051,1051,1049,1051,1054,1052,1049,1046,1044,1046,1045,1045,1043,1037,1039,1041,1041,1038,1031,1028,1025,1025,1025,1023,1019,1019,1020,1021,1022,1022,1018,1008,1011,1006,1010,1008,1004,1006,1005,1009,1009,1003,999,994,994,995,999,1002,1004,1003,1003,1004,1007,1004,1001,995,994,993,1000,999,1001,1001,997,998,994,992,992,988,987,989,993,996,994,990,988,990,986,987,983,983,982,988,990,988,988,984,984,984,985,983,984,982,982,984,985,986,986,982,983,985,986,984,983,982,980,982,985,987,987,984,983,984,988,985,982,982,979,983,990,989,988,990,990,989,987,985,984,980,980,986,991,992,992,990,986,985,987,986,985,987,988,992,997,993,992,987,983,981,986,982,984,984,983,983,985,983,978,979,979,987,992,992,994,994,994,997,996,996,990,990,987,988,991,991,992,985,982,981,983,983,979,975,975,975,976,976,975,974,972,971,971,970,965,959,957,956,961,958,959,957,957,963,964,962,958,956,957,961,964,967,970,971,973,974,973,977,972,971,970,976,979,980,982,984,981,980,979,979,980,979,981,985,990,990,986,982,979,982,982,984,988,986,987,986,983,979,963,947,937,931,934,943,955,966,977,987,998,1004,1014,1026,1044,1074,1117,1154,1175,1182,1176,1160,1146,1120,1088,1056,1029,1019,1006,998,993,989,987,991,993,991,990,984,984,991,995,994,994,995,993,995,993,992,995,995,996,998,1003,1000,998,996,994,995,997,999,1000,1002,1004,1006,1005,999,999,1001,1002,1003,1009,1011,1009,1008,1004,1006,1008,1005,1007,1007,1013,1014,1017,1016,1012,1010,1005,1008,1017,1023,1025,1025,1023,1026,1022,1020,1019,1019,1018,1025,1031,1033,1033,1029,1027,1025,1030,1031,1032,1032,1033,1036,1038,1040,1037,1034,1034,1034,1037,1035,1031,1030,1030,1030,1026,1021,1017,1015,1011,1010,1010,1006,1004,1001,1000,998,1001,997,994,989,988,989,989,989,988,984,986,986,986,984,979,979,977,980,985,984,984,981,979,978,978,977,974,976,975,978,977,975,972,966,964,965,970,970,969,968,970,971,969,964,960,961,961,964,967,967,966,961,957,959,961,959,960,960,959,963,964,962,957,956,955,956,959,961,960,961,962,961,963,961,960,962,962,963,965,961,961,966,965,968,971,968,965,964,962,964,966,969,972,971,972,974,974,972,971,967,967,970,973,975,971,971,968,972,973,972,976,977,978,983,984,986,982,979,974,974,976,977,976,978,975,976,976,969,966,962,963,965,969,970,967,967,963,961,959,956,951,948,945,946,950,949,947,945,942,944,945,946,945,945,947,950,954,957,956,955,956,960,963,965,964,960,959,961,967,965,963,965,968,969,971,971,968,968,966,972,975,977,975,975,974,973,974,973,972,970,967,972,976,973,968,958,947,934,929,927,927,937,947,960,972,979,983,988,996,1007,1026,1055,1092,1120,1143,1156,1151,1134,1115,1091,1060,1038,1024,1011,1002,992,988,988,987,983,981,980,980,983,989,990,992,991,988,991,989,989,988,988,991,992,994,996,997,991,991,993,995,995,994,993,992,996,1003,1002,1000,1001,1000,1000,1005,1006,1003,1003,1000,1008,1010,1010,1013,1011,1013,1014,1015,1013,1015,1014,1013,1014,1020,1022,1018,1016,1015,1018,1022,1022,1022,1023,1026,1025,1029,1028,1028,1025,1022,1033,1039,1041,1043,1038,1035,1035,1036,1037,1037,1038,1041,1046,1049,1045,1046,1043,1040,1038,1039,1040,1042,1039,1038,1039,1038,1029,1026,1022,1022,1022,1022,1021,1015,1011,1008,1005,1007,1004,1006,1003,1002,1004,1007,1005,998,998,997,997,998,999,996,997,994,995,998,995,993,989,986,989,994,994,994,992,989,989,987,987,985,985,985,989,993,993,984,980,976,978,979,980,982,980,979,984,982,982,978,976,975,981,982,986,987,987,983,982,978,981,980,980,987,990,992,990,988,983,980,983,987,990,990,991,992,991,991,989,988,988,989,993,995,995,994,995,991,992,991,993,991,990,987,993,996,996,996,993,994,999,1003,1003,1004,998,1002,1007,1012,1010,1005,1001,998,1003,1003,1001,1000,996,998,998,999,999,1001,995,993,993,995,994,994,992,992,993,991,985,979,975,976,980,986,988,983,983,980,978,979,979,977,977,986,995,1000,1003,999,999,999,996,999,1000,1000,1000,1003,1007,1006,1006,1004,1004,1003,1006,1010,1013,1012,1009,1005,1007,1009,1008,1007,1012,1009,1010,1012,1011,1008,1002,992,984,979,978,984,993,1003,1019,1033,1045,1053,1062,1067,1073,1079,1088,1111,1146,1184,1206,1199,1180,1153,1116,1084,1058,1041,1025,1016,1010,1010,1014,1014,1018,1015,1011,1006,1009,1015,1014,1018,1019,1020,1022,1024,1023,1021,1019,1019,1022,1029,1029,1029,1027,1025,1023,1026,1025,1024,1026,1028,1032,1036,1037,1033,1029,1027,1026,1032,1032,1033,1035,1032,1037,1037,1036,1034,1031,1028,1036,1039,1040,1041,1041,1041,1040,1042,1040,1039,1037,1038,1040,1044,1043,1044,1045,1044,1047,1048,1046,1048,1045,1048,1051,1051,1052,1052,1050,1051,1053,1055,1054,1054,1050,1048,1049,1053,1053,1053,1054,1052,1051,1050,1045,1041,1036,1037,1037,1035,1036,1031,1026,1020,1019,1018,1012,1013,1013,1012,1013,1010,1003,1001,996,994,995,998,995,994,989,988,988,988,985,984,981,982,984,988,989,986,979,978,977,977,980,980,979,976,980,981,979,975,971,972,972,975,975,973,972,966,969,968,968,963,963,961,964,968,968,967,966,961,961,960,960,958,956,956,961,964,966,965,961,957,956,958,960,960,963,965,966,969,966,961,959,956,965,969,972,971,970,966,967,965,965,966,968,970,972,977,973,968,966,963,965,966,966,970,972,973,977,978,975,975,980,980,983,986,983,978,974,973,974,976,974,972,970,966,966,965,964,960,958,957,957,959,958,956,953,949,947,946,944,945,944,945,949,951,952,951,948,948,951,951,951,957,962,964,970,974,969,963,961,955,960,970,974,973,972,970,972,973,971,971,972,974,979,980,978,975,969,965,968,971,971,968,962,949,934,926,930,944,957,971,983,996,1002,1009,1015,1027,1059,1099,1134,1160,1161,1146,1127,1101,1067,1035,1014,997,989,987,986,983,983,980,984,986,986,986,982,983,985,990,989,992,989,988,992,992,992,988,991,990,997,1001,999,999,994,991,993,997,996,1000,1001,1000,1002,1005,1003,998,996,997,1001,1007,1009,1011,1010,1010,1009,1009,1006,1008,1006,1009,1014,1020,1020,1019,1014,1011,1010,1016,1018,1024,1023,1025,1029,1028,1026,1023,1024,1023,1029,1035,1038,1040,1039,1039,1035,1038,1038,1038,1039,1039,1038,1041,1041,1040,1038,1036,1033,1034,1032,1029,1027,1026,1027,1028,1028,1025,1023,1019,1014,1015,1010,1007,1006,1006,1005,1007,1005,1002,996,994,993,991,990,989,988,993,995,997,995,991,989,985,988,990,990,988,985,988,988,986,983,982,981,981,984,987,986,984,980,976,975,974,975,976,976,978,981,985,983,979,975,972,976,973,974,975,977,976,978,978,975,973,969,969,973,976,977,977,976,974,978,980,979,978,974,973,977,983,985,983,982,980,981,983,984,982,982,980,984,986,990,988,986,986,988,990,991,987,987,986,993,996,997,992,995,991,994,998,998,997,998,1004,1008,1013,1009,1004,1003,1001,1001,1006,1009,1013,1008,1005,1003,1002,994,991,988,990,994,996,997,996,991,987,982,987,987,988,986,983,985,983,980,976,973,971,974,979,980,980,980,978,979,976,978,978,982,984,991,997,999,996,996,996,995,996,999,999,997,1000,1005,1006,1007,1008,1009,1009,1007,1010,1010,1007,1005,1006,1009,1015,1015,1011,1008,1003,1003,1001,1000,990,982,985,997,1013,1029,1040,1052,1061,1071,1082,1090,1098,1118,1149,1181,1200,1196,1177,1158,1130,1099,1071,1050,1029,1019,1011,1010,1010,1016,1019,1020,1016,1014,1014,1013,1013,1009,1009,1017,1023,1020,1018,1016,1015,1014,1017,1020,1020,1018,1022,1019,1022,1022,1023,1022,1022,1023,1025,1025,1026,1021,1023,1023,1027,1025,1023,1024,1024,1026,1028,1030,1031,1032,1031,1032,1035,1032,1030,1030,1030,1031,1036,1037,1039,1037,1032,1033,1037,1037,1040,1042,1042,1044,1046,1042,1036,1036,1038,1043,1046,1050,1047,1045,1046,1044,1040,1037,1041,1040,1042,1048,1046,1042,1042,1035,1029,1029,1031,1031,1029,1025,1022,1020,1019,1017,1013,1008,1006,1008,1002,1005,1002,997,994,995,995,995,992,991,986,989,991,990,987,985,986,985,985,984,982,981,979,981,986,982,980,975,975,971,974,974,974,972,971,974,974,974,971,967,962,969,971,969,971,970,970,971,967,965,961,958,959,962,967,966,965,964,959,956,959,962,962,959,960,968,971,967,967,964,960,961,962,965,967,965,966,963,966,966,962,963,962,964,965,970,972,972,970,971,970,972,970,970,967,972,974,976,975,975,973,977,981,983,981,979,984,987,994,989,990,990,989,989,986,987,982,983,982,982,982,982,980,976,969,966,965,965,965,963,964,966,966,967,963,958,955,951,953,953,955,954,949,952,953,947,942,941,940,942,947,949,949,950,945,948,949,948,947,949,956,961,967,966,964,964,961,963,965,965,965,967,967,970,973,974,972,967,966,969,973,970,971,970,969,974,974,974,971,966,962,959,953,941,930,927,933,947,959,971,982,985,991,1003,1015,1026,1045,1078,1117,1150,1162,1152,1133,1110,1078,1049,1031,1019,1003,988,982,978,980,976,973,972,974,978,983,985,985,983,980,981,983,979,981,982,985,987,988,990,988,984,983,986,990,992,994,995,996,995,994,991,989,986,989,992,996,997,1001,997,997,995,995,996,996,994,995,998,1003,1006,1004,1004,1002,1002,1002,1004,1002,1003,1003,1006,1010,1011,1012,1012,1011,1012,1012,1017,1017,1016,1017,1021,1024,1025,1025,1023,1024,1025,1024,1022,1026,1026,1027,1032,1034,1032,1031,1030,1026,1029,1032,1028,1027,1023,1025,1028,1030,1029,1025,1018,1016,1013,1012,1013,1010,1011,1009,1010,1012,1007,1001,995,992,987,991,991,993,990,992,992,992,987,985,980,977,979,981,982,983,981,982,983,982,980,976,971,972,975,977,979,979,976,975,976,978,977,973,968,971,972,973,974,970,971,969,970,970,971,969,969,967,966,967,966,966,964,965,966,968,969,965,963,964,963,963,966,965,964,965,968,971,971,971,967,968,966,970,968,968,968,968,972,976,974,969,967,961,966,967,971,973,974,974,978,978,976,974,970,968,971,978,980,984,984,983,979,984,982,983,982,984,990,992,996,996,998,998,995,997,997,995,995,998,1000,1008,1006,1004,1000,993,994,994,995,991,989,984,983,983,984,985,980,978,978,980,981,978,975,970,975,977,977,976,975,972,973,976,974,971,970,967,971,969,970,965,964,964,970,970,970,969,968,966,969,972,975,976,974,977,984,989,986,987,985,978,983,986,991,994,992,992,996,998,997,993,990,992,997,1003,1004,1006,1007,1005,1008,1008,1006,1003,1002,1002,1004,1004,1007,1002,992,981,972,972,972,981,990,1002,1016,1031,1042,1051,1060,1063,1068,1073,1078,1089,1113,1143,1175,1196,1199,1188,1174,1157,1128,1099,1072,1057,1043,1032,1024,1021,1018,1019,1018,1017,1019,1018,1019,1018,1016,1016,1018,1022,1022,1022,1021,1021,1022,1029,1027,1021,1024,1024,1026,1031,1033,1035,1033,1033,1034,1037,1035,1032,1031,1032,1032,1035,1037,1040,1042,1040,1042,1043,1040,1037,1034,1037,1042,1049,1050,1049,1050,1048,1048,1048,1049,1045,1042,1044,1049,1055,1055,1057,1052,1051,1051,1051,1055,1059,1061,1061,1065,1067,1064,1062,1059,1061,1063,1066,1069,1071,1072,1069,1069,1066,1066,1067,1065,1068,1073,1078,1077,1073,1074,1070,1069,1073,1070,1066,1066,1065,1063,1064,1062,1056,1053,1051,1048,1047,1041,1039,1039,1038,1040,1040,1036,1034,1030,1027,1024,1025,1025,1022,1020,1020,1020,1022,1023,1022,1021,1016,1016,1013,1012,1011,1012,1012,1016,1017,1013,1008,1003,1002,1002,1004,1005,1006,1005,1004,1002,999,995,993,990,993,995,999,999,998,993,989,987,985,986,989,985,987,987,992,989,986,981,980,982,985,985,985,983,982,983,984,982,980,980,979,982,985,986,984,983,981,984,986,986,982,982,982,985,987,989,985,982,986,986,988,989,985,983,983,981,983,987,987,989,991,995,999,999,997,993,995,1000,1003,1005,1004,1003,999,1001,999,1000,996,991,992,995,996,991,990,985,974,974,972,973,970,974,975,977,977,977,971,969,966,964,966,966,967,967,963,964,965,959,957,952,948,949,954,957,960,961,963,967,968,965,966,956,960,960,962,965,965,966,967
