975,976,975,978,978,976,975,976,977,979,978,979,977,979,978,981,983,981,979,977,981,982,981,981,978,977,980,984,986,984,982,981,983,985,983,983,981,983,985,989,987,987,982,980,982,985,985,986,988,993,994,1001,1000,996,994,991,993,995,997,996,992,991,989,986,984,984,984,982,986,989,988,986,983,979,978,977,976,973,971,972,972,972,973,972,968,969,971,975,976,976,976,975,979,984,986,986,983,987,988,993,994,992,987,987,991,994,996,994,993,995,998,998,1003,1001,1000,1002,1002,1004,1004,1000,998,995,995,998,999,998,995,994,991,983,971,959,953,952,961,973,983,994,995,1000,1005,1016,1025,1039,1066,1099,1135,1161,1163,1153,1140,1117,1097,1076,1059,1042,1028,1022,1017,1016,1011,1006,1003,1003,1006,1009,1011,1011,1006,1004,1005,1007,1008,1005,1008,1007,1010,1015,1014,1014,1013,1010,1014,1014,1016,1016,1018,1018,1016,1020,1020,1020,1014,1016,1020,1023,1022,1021,1018,1020,1023,1026,1030,1029,1026,1028,1028,1030,1030,1029,1031,1034,1036,1037,1037,1035,1032,1034,1037,1043,1046,1046,1043,1040,1041,1043,1043,1043,1046,1050,1054,1057,1057,1053,1048,1046,1050,1053,1053,1057,1054,1053,1052,1051,1049,1044,1045,1045,1048,1052,1048,1040,1037,1033,1028,1030,1029,1029,1026,1023,1019,1019,1016,1016,1012,1011,1011,1009,1009,1005,1004,999,996,999,999,998,996,996,995,996,998,993,990,986,990,990,992,991,987,986,988,989,985,986,982,983,985,988,990,987,982,976,977,979,981,981,980,980,978,980,976,973,974,973,976,982,984,985,981,976,978,976,977,977,977,983,986,990,988,985,982,979,979,982,986,988,989,988,987,985,984,981,979,984,986,990,993,989,986,983,983,983,985,988,990,989,993,996,994,996,997,994,993,994,995,991,991,988,989,990,990,987,983,983,986,987,984,982,979,975,975,976,976,974,970,968,971,973,975,974,974,968,974,975,973,974,970,971,978,982,986,989,987,985,988,988,992,988,983,986,991,994,991,993,991,989,989,995,999,1002,1002,1001,998,997,991,997,994,994,999,1000,1002,998,994,983,976,966,959,954,956,966,977,987,995,999,1003,1005,1010,1021,1033,1055,1088,1123,1149,1160,1158,1146,1127,1103,1078,1058,1039,1025,1016,1010,1009,1008,1007,1008,1003,1005,1005,1008,1006,1005,1001,1002,1009,1009,1010,1008,1004,1006,1007,1011,1012,1013,1012,1012,1011,1013,1009,1008,1007,1008,1011,1015,1019,1019,1019,1019,1016,1014,1017,1017,1014,1024,1025,1029,1029,1028,1024,1021,1022,1023,1023,1024,1026,1029,1032,1029,1031,1030,1027,1027,1028,1034,1036,1039,1041,1040,1040,1038,1039,1036,1038,1039,1040,1047,1049,1049,1043,1044,1046,1048,1050,1049,1049,1050,1052,1055,1054,1052,1051,1047,1050,1049,1050,1047,1045,1043,1045,1045,1043,1040,1035,1032,1031,1029,1027,1025,1018,1017,1015,1018,1011,1009,1006,1002,1001,1003,1003,1002,1000,1001,1000,1001,999,995,992,992,992,992,995,996,993,991,993,991,991,987,982,983,984,989,991,990,987,982,982,979,982,981,981,981,980,983,982,978,971,969,970,974,976,977,977,978,976,975,976,972,971,970,972,977,975,979,974,976,975,976,975,975,976,974,975,977,977,977,976,972,975,978,980,981,977,976,979,981,981,982,981,978,978,981,982,982,978,980,982,983,987,986,986,983,989,993,994,995,996,992,987,987,988,986,985,985,987,989,990,987,984,982,980,980,980,979,978,975,977,975,970,967,962,960,963,970,974,972,968,966,964,967,969,969,971,971,975,978,980,983,980,976,977,981,980,982,982,983,986,990,990,990,990,992,994,999,999,998,992,991,991,991,990,988,985,983,983,981,974,963,951,944,948,963,971,978,986,994,1004,1011,1014,1027,1049,1087,1128,1150,1154,1141,1122,1096,1068,1043,1023,1011,1004,1003,1007,1008,1004,1000,996,992,994,994,1000,1003,1003,1002,1003,1003,1003,1002,1003,1007,1011,1012,1012,1009,1007,1007,1008,1011,1015,1014,1014,1016,1015,1013,1013,1015,1013,1016,1018,1022,1021,1023,1021,1021,1017,1022,1020,1022,1023,1021,1023,1028,1027,1027,1027,1026,1027,1029,1030,1032,1032,1033,1037,1040,1041,1040,1038,1036,1039,1043,1045,1046,1042,1042,1043,1044,1043,1042,1038,1039,1045,1047,1048,1043,1035,1032,1033,1035,1038,1039,1033,1024,1020,1019,1016,1010,1010,1010,1011,1010,1003,1002,994,993,995,998,997,995,993,988,986,985,984,985,984,986,986,986,989,985,982,980,980,982,983,981,982,978,981,979,976,974,974,974,973,976,971,975,972,973,971,973,973,970,967,966,967,971,973,974,973,971,970,970,968,967,967,969,971,972,973,969,969,966,967,969,971,974,975,974,978,979,975,970,967,965,969,975,980,977,976,973,972,972,975,972,974,976,975,978,980,975,973,976,978,983,986,987,985,985,986,984,982,981,981,985,985,984,983,978,975,970,966,970,975,971,968,968,968,968,968,963,960,959,960,961,960,959,958,957,960,965,966,964,961,960,963,969,973,978,980,984,980,976,973,971,969,976,984,989,989,985,981,980,981,987,991,994,989,988,987,986,983,981,981,981,983,978,968,954,942,941,951,967,980,991,998,1001,1008,1017,1033,1065,1106,1144,1160,1163,1151,1126,1093,1061,1033,1018,1010,1007,1004,1003,1001,1001,998,1000,999,999,998,1001,1004,1004,1005,1002,1006,1010,1007,1005,1003,1005,1008,1014,1016,1012,1010,1008,1010,1013,1016,1017,1014,1016,1014,1016,1016,1016,1016,1016,1022,1024,1023,1025,1020,1018,1018,1023,1027,1029,1032,1032,1030,1026,1027,1029,1028,1032,1038,1042,1046,1044,1041,1040,1040,1044,1047,1048,1050,1051,1050,1051,1048,1045,1045,1047,1049,1050,1052,1052,1047,1043,1043,1042,1042,1041,1038,1035,1031,1030,1028,1024,1018,1017,1019,1018,1014,1013,1009,1007,1006,1005,1004,1002,998,995,994,997,994,993,991,987,990,989,989,989,987,988,990,990,989,987,984,980,981,981,984,985,982,976,976,976,977,973,977,977,980,980,979,973,973,971,974,977,977,979,980,976,974,972,973,971,972,972,974,978,980,978,972,974,978,979,980,974,977,973,976,979,977,976,974,974,977,983,985,980,979,979,980,981,981,980,978,979,979,982,983,988,985,987,989,989,994,995,993,991,990,987,989,987,983,981,982,983,986,986,983,982,978,979,975,975,973,969,973,972,969,967,965,961,966,965,966,968,972,971,970,973,973,971,975,978,981,988,991,989,984,980,980,983,989,991,994,996,994,994,995,995,990,993,995,999,1001,1001,999,996,998,999,999,998,989,988,980,973,963,959,961,971,982,995,1004,1011,1015,1018,1029,1049,1074,1105,1135,1156,1166,1157,1143,1116,1083,1059,1041,1028,1014,1010,1007,1007,1009,1015,1017,1018,1017,1009,1007,1010,1005,1008,1008,1012,1018,1021,1020,1018,1015,1011,1015,1017,1021,1022,1026,1024,1024,1026,1025,1020,1014,1016,1023,1027,1027,1029,1026,1023,1021,1023,1028,1030,1029,1030,1033,1036,1035,1033,1030,1029,1032,1039,1039,1040,1038,1038,1038,1041,1043,1043,1044,1043,1047,1050,1051,1052,1050,1051,1052,1053,1054,1052,1051,1051,1056,1058,1058,1060,1055,1051,1054,1054,1056,1055,1056,1055,1056,1054,1053,1048,1043,1038,1038,1040,1040,1033,1032,1028,1025,1023,1020,1019,1019,1020,1020,1020,1017,1011,1006,1000,1004,1008,1009,1008,1006,1002,1001,999,997,997,997,998,997,1002,1002,1001,996,993,990,994,992,991,991,993,993,994,993,988,984,984,984,987,989,992,990,986,986,988,987,984,982,983,981,988,986,989,986,984,983,984,986,984,981,981,984,988,987,988,985,981,982,984,984,986,983,984,988,990,988,986,984,980,987,994,996,993,990,991,989,989,986,983,981,986,994,999,1002,1001,999,997,996,999,1001,1001,1000,1000,998,996,996,991,986,987,993,997,997,998,993,994,986,983,981,979,979,979,977,978,977,973,968,967,971,976,973,972,970,970,970,970,975,979,979,980,986,989,992,993,988,989,990,992,992,993,990,988,992,997,999,1002,995,998,996,997,998,998,998,997,1000,1002,999,995,988,980,971,963,958,956,960,966,974,985,992,1000,1005,1012,1024,1042,1070,1101,1136,1158,1168,1165,1157,1142,1122,1093,1068,1050,1033,1016,1005,1002,1006,1009,1011,1008,1007,1002,1002,1005,1008,1009,1009,1011,1015,1018,1016,1013,1009,1010,1010,1013,1014,1015,1013,1011,1013,1018,1019,1020,1016,1019,1021,1021,1023,1021,1020,1017,1022,1024,1025,1024,1023,1024,1027,1032,1037,1030,1029,1026,1028,1027,1028,1027,1029,1032,1034,1037,1036,1038,1036,1034,1037,1036,1040,1043,1044,1047,1049,1053,1050,1046,1042,1038,1041,1049,1051,1049,1047,1047,1042,1044,1043,1046,1051,1053,1054,1053,1050,1044,1038,1033,1032,1031,1033,1030,1028,1022,1021,1018,1012,1010,1008,1005,1004,1008,1008,1005,1001,997,997,997,995,990,990,990,991,993,992,992,991,987,987,987,986,985,983,979,983,980,984,982,980,979,977,979,980,977,977,976,976,978,977,976,974,970,971,970,970,972,971,971,969,967,967,966,968,968,972,973,971,971,966,964,964,965,965,969,969,970,972,975,973,971,966,967,967,972,974,974,973,971,970,973,968,970,970,974,978,981,979,977,973,970,972,975,977,975,974,974,977,984,980,980,979,978,983,987,989,987,985,982,980,980,978,977,974,972,974,975,973,973,971,970,972,972,971,967,966,959,961,963,964,962,962,958,957,958,958,955,954,952,959,962,964,964,961,963,964,966,968,969,973,971,973,976,975,972,971,969,971,977,980,984,982,985,982,984,982,983,978,981,980,986,987,981,982,977,976,975,974,968,962,954,949,944,940,937,936,941,947,957,965,975,983,994,1004,1019,1043,1075,1108,1131,1138,1134,1124,1111,1090,1066,1050,1033,1018,1006,995,992,992,994,993,989,991,991,990,996,995,993,987,988,991,994,996,995,994,994,995,997,999,999,998,998,998,1000,1003,1001,1000,1001,1001,1003,1005,1005,1006,1005,1008,1014,1016,1013,1010,1007,1005,1007,1008,1006,1007,1006,1012,1015,1016,1016,1012,1011,1012,1015,1019,1018,1017,1018,1021,1024,1023,1023,1022,1021,1026,1031,1031,1030,1030,1030,1030,1031,1034,1034,1033,1031,1036,1039,1041,1041,1039,1035,1033,1035,1035,1034,1032,1032,1033,1031,1029,1028,1026,1026,1023,1025,1023,1021,1018,1016,1014,1010,1009,1008,1003,998,997,996,996,994,991,991,995,995,994,992,988,986,985,984,984,986,982,981,982,985,980,979,974,971,976,979,980,979,978,974,974,973,971,970,969,965,968,972,970,971,967,966,963,966,969,969,969,966,969,970,970,968,964,962,960,964,969,968,967,968,969,966,969,969,963,962,965,968,971,968,968,967,967,970,970,971,967,969,971,972,973,971,970,967,971,973,974,973,969,971,973,974,975,975,976,977,976,978,976,972,969,970,973,975,977,980,983,979,982,982,986,987,987,987,988,989,990,989,984,982,979,979,977,978,975,973,977,979,978,978,977,968,965,967,968,966,966,968,967,968,965,963,960,958,957,959,962,964,967,965,963,965,966,967,967,967,971,977,976,979,981,981,982,982,977,978,978,982,986,983,988,988,986,985,989,991,990,991,991,989,990,992,995,995,991,989,990,991,989,986,980,970,958,954,955,958,965,971,977,988,991,1000,1003,1008,1017,1029,1053,1083,1119,1146,1158,1154,1144,1129,1105,1079,1058,1045,1032,1020,1010,1003,1001,1005,1005,1005,1004,1005,1007,1009,1008,1005,1003,996,1002,1004,1008,1009,1012,1010,1012,1014,1010,1012,1006,1008,1010,1016,1019,1021,1016,1015,1017,1017,1015,1015,1013,1014,1016,1020,1023,1023,1020,1019,1018,1022,1023,1025,1023,1024,1027,1028,1031,1030,1027,1026,1028,1033,1036,1035,1032,1034,1037,1039,1040,1042,1041,1040,1040,1040,1042,1043,1039,1041,1043,1047,1051,1051,1050,1047,1049,1052,1054,1053,1051,1051,1051,1052,1055,1050,1048,1046,1049,1051,1051,1051,1047,1045,1040,1038,1036,1034,1033,1032,1031,1030,1025,1022,1016,1012,1011,1014,1015,1013,1013,1011,1010,1007,1000,996,995,994,994,996,997,999,996,991,991,992,993,990,989,986,993,992,991,988,985,983,983,989,988,984,983,982,983,983,985,981,978,977,980,981,982,979,977,976,977,978,978,978,974,974,974,977,977,975,973,971,972,970,975,972,971,972,974,977,979,977,973,971,971,977,977,978,979,976,980,980,981,979,974,974,979,984,983,981,978,977,975,976,977,976,978,982,986,988,988,988,982,982,987,992,992,992,987,982,982,982,980,976,979,980,982,982,980,976,972,970,970,972,972,968,964,962,962,959,960,959,957,956,960,961,961,962,957,961,963,966,968,971,971,968,970,973,975,980,981,982,982,983,982,985,981,976,980,980,987,989,990,988,990,990,986,987,984,981,985,989,992,992,991,987,986,983,981,975,965,956,949,946,948,952,956,962,969,979,990,998,1004,1010,1027,1045,1075,1108,1139,1153,1156,1149,1139,1124,1100,1075,1053,1036,1020,1005,993,993,996,1000,1002,1002,1003,1000,999,999,1000,1002,1001,997,997,1001,1003,1008,1004,1003,1004,1007,1007,1005,1006,1003,1004,1006,1009,1011,1008,1007,1012,1013,1013,1015,1013,1010,1012,1014,1019,1018,1018,1015,1017,1019,1019,1017,1016,1016,1021,1024,1027,1026,1025,1021,1022,1026,1026,1025,1027,1028,1029,1033,1034,1034,1030,1028,1033,1036,1039,1040,1039,1041,1042,1042,1046,1039,1039,1039,1042,1048,1052,1053,1045,1045,1045,1045,1043,1045,1043,1046,1046,1049,1047,1043,1040,1037,1037,1038,1037,1035,1032,1027,1029,1027,1023,1019,1015,1013,1015,1015,1011,1010,1007,1005,1004,1005,1004,1001,996,996,996,999,997,995,997,995,997,997,997,995,989,982,985,986,990,990,989,988,988,988,989,983,984,981,983,985,985,985,982,980,977,977,976,977,975,975,978,983,982,978,976,973,972,973,974,976,979,980,977,980,979,975,971,971,971,976,980,984,978,980,978,978,977,976,978,978,979,983,982,982,979,980,979,982,984,985,983,986,986,985,986,985,981,979,978,983,986,988,989,992,992,995,993,994,995,989,995,994,994,994,990,989,986,984,983,982,983,981,980,984,983,982,976,970,970,970,972,970,967,969,971,970,965,964,959,961,964,969,970,971,970,969,970,975,980,986,987,984,984,987,985,984,980,982,984,992,998,997,995,992,990,992,996,997,999,999,1000,998,992,988,985,981,973,963,954,951,955,964,974,990,998,1005,1010,1022,1052,1098,1145,1170,1167,1147,1125,1097,1066,1042,1023,1011,1004,1003,1005,1004,1002,1003,1001,1008,1004,1004,1001,999,1001,1003,1010,1008,1007,1007,1004,1005,1005,1008,1010,1014,1016,1019,1015,1011,1009,1011,1010,1015,1021,1022,1019,1019,1019,1021,1023,1024,1021,1022,1023,1022,1027,1024,1024,1025,1028,1034,1034,1034,1033,1031,1036,1035,1040,1043,1042,1042,1047,1048,1049,1048,1045,1048,1050,1051,1052,1051,1050,1048,1049,1053,1053,1051,1050,1045,1045,1050,1049,1047,1044,1041,1038,1033,1033,1028,1028,1026,1026,1028,1024,1017,1013,1008,1004,1008,1009,1009,1005,1002,1001,1001,999,996,991,992,995,996,998,990,986,983,983,985,985,988,986,985,988,986,983,981,982,980,984,988,987,983,979,975,974,981,981,981,980,978,977,977,979,978,978,975,970,971,972,974,974,972,973,972,974,976,972,974,975,977,977,976,976,974,973,975,977,973,978,979,980,980,977,978,975,975,976,978,985,982,979,978,975,976,978,982,984,989,991,990,989,986,986,986,989,992,995,993,989,984,979,975,976,980,980,981,981,980,975,968,967,962,965,967,971,969,964,961,965,967,968,967,965,966,968,969,972,974,975,977,982,984,985,981,980,976,981,985,989,989,986,984,989,993,996,994,993,991,991,991,994,997,997,993,989,988,984,971,956,947,950,961,972,982,989,991,997,1007,1017,1037,1070,1112,1148,1160,1151,1134,1108,1079,1054,1031,1019,1008,1002,999,997,999,1007,1009,1007,1002,998,1000,1002,1003,1004,1007,1009,1012,1012,1011,1008,1005,1006,1011,1015,1017,1012,1011,1014,1014,1016,1015,1014,1016,1020,1022,1025,1025,1022,1019,1022,1025,1026,1027,1027,1025,1029,1034,1035,1033,1030,1030,1035,1039,1044,1043,1039,1033,1036,1040,1042,1043,1045,1047,1049,1054,1051,1052,1048,1045,1048,1057,1057,1058,1056,1050,1049,1050,1049,1051,1051,1049,1051,1048,1049,1044,1040,1034,1030,1028,1028,1028,1024,1020,1017,1017,1013,1011,1005,1007,1006,1009,1004,1002,998,998,997,998,999,998,996,996,994,993,995,994,994,992,990,992,991,990,987,986,987,990,987,985,983,984,984,986,987,985,983,980,980,979,977,975,976,977,977,979,978,978,973,970,971,977,980,983,982,978,981,978,975,970,969,967,974,981,982,979,976,971,970,971,974,976,974,979,980,981,980,978,973,973,974,979,984,985,982,980,977,976,977,978,980,982,987,991,991,989,988,987,989,992,992,990,986,987,988,991,990,986,982,980,981,983,983,977,976,973,976,976,974,971,966,962,965,965,968,968,965,964,966,966,965,965,961,961,966,971,973,972,972,973,975,979,981,983,983,978,981,984,986,981,981,982,986,993,997,996,992,989,988,985,986,988,985,986,986,990,990,982,974,962,952,945,942,939,945,953,962,972,983,990,996,1007,1019,1042,1075,1111,1143,1159,1158,1147,1135,1113,1080,1048,1031,1014,1005,1000,995,993,994,998,1001,997,998,998,1000,1002,1004,1001,998,996,1001,1006,1008,1005,1003,1000,1000,1001,1000,1003,1003,1003,1006,1011,1010,1009,1008,1006,1008,1006,1011,1017,1012,1012,1010,1008,1010,1010,1011,1009,1015,1022,1027,1022,1019,1014,1014,1021,1025,1031,1029,1028,1032,1031,1029,1027,1027,1028,1033,1038,1041,1043,1040,1033,1031,1038,1040,1040,1040,1039,1040,1041,1043,1045,1042,1040,1039,1039,1037,1034,1029,1025,1022,1024,1019,1014,1012,1010,1010,1009,1010,1006,1000,999,998,996,993,990
