825,827,827,826,824,820,817,818,822,831,832,830,834,838,842,844,841,841,841,846,853,860,864,868,868,869,877,878,874,871,867,866,866,866,862,861,860,862,865,864,859,851,846,843,840,839,835,833,833,829,832,829,824,822,819,817,818,822,826,826,823,823,826,826,823,816,809,799,793,790,787,787,794,807,835,869,906,945,978,1009,1041,1068,1105,1131,1147,1157,1159,1158,1146,1132,1117,1087,1045,989,935,888,854,836,836,846,852,858,854,844,834,825,823,821,817,811,811,810,809,811,809,808,807,804,814,815,820,819,817,813,809,808,813,812,810,809,812,816,820,817,818,814,812,811,816,818,816,815,818,815,822,826,827,823,819,817,817,818,821,822,821,822,829,829,833,830,828,827,828,832,831,833,828,831,835,838,840,836,833,833,834,836,838,839,839,840,845,847,842,842,840,834,839,838,842,838,835,838,842,844,843,837,837,833,829,833,833,832,831,831,836,841,839,836,832,829,828,832,833,830,829,828,832,835,834,834,828,826,824,822,821,821,819,818,819,821,821,822,816,812,812,813,817,813,813,812,815,819,819,817,813,813,815,815,815,817,816,823,824,824,825,820,822,824,827,827,826,825,824,830,836,839,835,835,836,837,845,850,851,855,858,866,870,874,874,870,868,867,868,867,864,861,859,861,864,866,862,859,848,846,845,842,834,831,829,831,831,833,831,827,823,822,820,821,820,821,818,822,825,826,826,821,814,805,799,792,782,782,794,815,851,891,931,968,1008,1044,1078,1106,1128,1144,1155,1163,1162,1152,1138,1115,1081,1032,975,918,870,839,831,833,846,855,855,852,836,829,821,815,804,803,803,807,813,811,810,805,806,808,809,808,806,804,808,813,812,813,809,807,807,809,811,808,806,805,809,812,817,818,815,815,815,817,818,820,810,814,817,821,822,820,818,821,820,824,825,823,818,820,823,832,830,833,830,828,827,827,830,831,825,826,829,834,835,836,834,833,831,834,835,836,837,831,831,836,841,842,840,831,832,830,833,835,832,831,827,829,834,838,836,833,831,830,833,835,832,830,828,829,834,836,833,828,826,825,824,826,825,821,820,823,825,826,819,817,821,818,815,813,809,807,808,812,816,816,812,813,809,812,812,813,811,808,812,815,823,824,819,820,818,816,816,818,815,817,821,826,829,829,828,825,824,824,828,828,827,826,832,835,839,846,847,848,855,858,863,861,862,863,866,871,873,874,871,864,861,858,856,855,850,850,854,855,854,849,841,836,833,831,828,826,821,821,821,822,823,821,817,815,814,815,817,815,811,809,811,812,808,801,790,778,776,780,792,817,843,881,923,961,997,1035,1062,1092,1119,1141,1152,1156,1147,1135,1124,1103,1067,1017,956,898,859,839,833,834,838,843,850,848,838,827,813,807,804,804,802,801,797,800,806,807,808,811,808,808,809,810,804,803,801,803,807,813,811,811,809,807,810,813,813,810,807,810,811,813,814,814,812,810,814,815,812,812,810,809,817,821,827,825,820,820,819,821,826,826,824,823,826,830,833,834,832,832,829,829,831,830,828,828,833,836,842,844,842,838,837,838,837,837,833,832,836,839,840,843,838,837,835,837,837,837,833,832,834,836,839,838,838,831,834,832,836,835,830,833,830,833,835,834,833,830,829,828,830,825,820,819,822,826,827,831,825,819,818,817,817,817,810,809,810,815,818,818,817,817,819,816,818,817,815,817,819,823,827,826,825,823,824,828,827,822,823,829,835,839,839,840,842,841,843,845,847,848,852,856,864,869,872,871,877,876,879,879,869,868,867,869,868,867,865,868,867,868,865,858,849,843,835,839,837,836,832,831,834,836,835,832,825,823,821,825,824,828,827,826,828,827,822,814,803,791,782,784,792,807,825,857,899,941,981,1015,1051,1086,1118,1145,1166,1175,1176,1171,1161,1139,1102,1047,983,925,881,852,841,846,857,869,869,867,856,838,827,818,816,815,814,814,813,816,819,819,817,816,818,817,819,822,818,820,819,818,824,824,823,820,813,816,818,823,823,824,820,824,827,831,826,821,820,822,825,828,828,826,825,826,831,835,835,832,827,829,829,835,833,835,835,839,840,844,842,837,836,833,838,841,843,843,839,842,845,851,853,848,844,840,839,845,847,851,850,849,852,850,853,850,847,846,842,843,845,846,846,845,847,847,850,849,846,840,841,845,845,848,848,846,848,848,844,842,837,834,835,836,836,837,836,833,832,831,835,836,831,823,822,824,825,825,829,825,822,820,821,822,817,819,819,819,823,826,828,827,827,827,827,830,830,828,823,824,825,832,832,836,835,831,833,834,834,835,835,834,834,842,848,845,846,846,848,852,857,862,864,863,865,871,875,881,883,882,877,877,875,874,873,870,866,868,868,867,867,866,864,856,854,849,845,844,838,837,834,837,838,836,834,829,827,829,827,826,824,825,823,829,830,829,823,819,811,803,801,795,787,782,790,809,834,866,906,944,976,1012,1049,1084,1117,1141,1158,1167,1170,1166,1152,1130,1110,1077,1033,978,926,881,853,841,844,853,860,863,855,844,834,827,827,823,817,814,817,819,820,818,813,810,811,813,817,821,821,821,816,819,818,821,821,815,815,814,815,817,820,819,819,825,823,822,818,816,813,814,820,823,823,820,823,822,826,826,827,825,821,824,826,828,831,827,828,828,836,837,831,831,829,832,836,838,843,841,841,835,838,840,843,840,840,839,840,844,847,850,849,842,840,843,846,845,842,839,838,842,844,847,845,841,838,839,839,838,834,835,834,839,840,838,840,839,838,837,832,830,826,827,830,833,834,833,830,823,827,827,829,824,819,817,819,820,819,817,817,817,815,817,817,813,810,809,813,813,818,818,818,813,817,817,816,816,813,811,813,819,826,823,824,822,821,822,819,821,820,818,820,825,832,836,837,833,830,831,836,838,843,844,847,857,862,868,868,868,868,870,869,869,864,861,861,865,867,863,862,855,854,857,852,845,839,834,830,835,832,828,829,823,826,823,821,820,816,816,819,822,825,821,823,820,819,818,813,805,788,779,778,781,795,816,844,882,922,959,995,1027,1059,1087,1119,1145,1159,1165,1162,1151,1139,1115,1075,1019,949,892,851,830,825,832,839,847,844,833,825,813,807,805,804,801,803,804,805,807,811,809,804,804,803,806,808,810,806,807,810,811,810,807,805,804,805,809,814,809,807,810,811,815,815,817,814,810,809,807,811,816,816,813,815,815,818,819,820,814,813,814,818,824,828,828,826,826,827,829,831,829,825,821,827,831,835,835,835,836,837,838,834,832,833,830,836,838,838,836,838,835,835,836,837,831,827,827,830,834,837,836,832,832,834,833,828,824,823,826,828,831,832,832,829,832,832,833,831,827,824,822,820,823,826,824,821,821,822,823,819,813,809,807,810,816,816,817,814,812,810,811,813,812,807,807,807,813,815,816,814,814,812,813,812,813,810,812,813,821,821,819,822,819,821,826,822,821,820,822,827,832,832,833,836,840,841,843,846,849,853,860,864,870,867,866,868,867,871,871,869,863,858,854,855,858,858,855,856,854,849,845,841,834,826,822,821,826,832,830,827,822,821,820,821,818,814,813,816,820,822,822,818,818,811,804,792,780,774,778,796,828,861,900,942,978,1015,1049,1079,1106,1126,1139,1153,1161,1161,1155,1138,1119,1090,1044,983,920,870,837,826,831,842,851,853,847,841,834,824,818,808,802,800,805,811,809,809,804,804,802,803,804,805,800,805,804,812,814,816,809,808,808,809,810,806,802,803,806,812,813,816,812,813,811,811,810,809,810,810,817,818,818,819,819,822,823,825,820,820,817,820,827,830,830,828,827,830,832,830,828,829,829,831,835,834,834,834,836,839,841,837,832,830,833,834,836,838,836,837,837,838,836,833,831,830,831,832,836,834,835,832,835,837,838,833,829,828,829,831,833,831,830,832,832,830,827,824,824,825,823,821,819,818,822,822,821,819,815,812,811,812,813,811,808,809,810,814,814,813,810,809,812,814,812,811,812,817,820,823,824,823,818,816,820,820,821,821,821,824,829,835,833,830,827,833,833,835,836,834,839,844,859,863,865,867,867,868,868,871,865,863,867,870,870,866,866,860,858,856,856,849,841,840,837,834,831,830,829,826,824,824,821,819,817,817,823,822,825,826,827,826,825,821,813,802,794,784,785,788,797,823,854,894,932,971,1008,1041,1075,1110,1136,1156,1164,1171,1168,1157,1141,1109,1068,1009,951,899,861,839,833,843,854,862,858,850,837,827,819,814,810,806,808,813,812,810,810,805,807,811,815,812,814,812,812,815,814,815,814,811,812,814,815,813,811,812,814,816,820,820,815,812,812,816,815,817,818,816,818,822,824,827,823,818,822,821,825,827,824,827,830,832,834,835,835,831,829,831,835,833,834,833,836,839,841,843,840,835,836,837,837,842,840,838,839,847,849,848,839,839,837,840,839,837,835,834,837,841,844,844,838,833,832,837,835,834,833,832,835,839,841,841,838,833,830,830,835,832,832,827,830,835,835,838,835,827,825,824,822,825,824,824,821,820,821,821,822,820,817,813,814,816,821,824,823,822,823,823,824,823,823,822,822,822,826,829,830,828,826,828,827,828,828,822,822,829,832,839,840,841,841,844,847,847,848,849,852,856,863,868,870,870,870,875,876,877,874,870,868,864,869,867,868,863,863,860,865,863,858,850,842,840,840,840,838,837,833,833,833,834,831,826,818,819,819,825,827,826,824,824,822,823,825,815,801,794,782,787,789,800,818,843,881,923,960,999,1034,1071,1106,1140,1159,1172,1175,1171,1159,1137,1112,1073,1015,956,906,870,852,846,845,852,860,864,862,849,830,821,816,816,820,818,817,813,811,815,815,813,809,808,808,812,820,822,819,815,813,811,813,814,815,812,811,816,820,824,826,823,816,813,818,820,822,818,818,820,822,829,828,824,823,823,823,825,826,823,821,822,831,835,836,834,835,837,835,833,832,829,830,835,842,846,843,842,839,842,842,846,843,841,843,843,850,854,853,847,841,842,844,844,841,841,844,846,849,851,849,845,842,841,842,841,838,835,833,839,842,846,845,842,839,835,838,835,836,832,832,833,839,840,839,836,834,835,834,830,823,823,823,824,827,827,823,820,824,818,819,814,813,815,819,821,821,819,822,823,826,825,827,823,822,820,826,826,829,828,830,828,827,831,830,827,827,828,835,842,844,838,841,843,846,852,853,852,856,859,868,875,879,880,881,874,877,876,873,869,871,872,872,873,872,869,867,867,864,865,858,848,845,842,841,838,835,835,837,835,836,832,829,828,826,830,832,832,829,830,831,832,830,822,809,794,783,785,797,814,839,867,905,943,989,1021,1056,1086,1111,1139,1157,1171,1179,1182,1175,1163,1145,1112,1061,1000,937,890,862,851,853,860,865,869,868,857,846,830,824,816,821,822,822,825,824,820,820,823,821,818,814,815,822,825,824,824,823,821,823,825,825,822,822,826,827,826,829,826,825,829,831,832,828,827,825,822,826,827,832,829,830,832,836,838,837,836,832,835,837,840,840,838,838,838,843,842,842,840,838,837,839,842,843,843,847,851,855,856,856,851,850,846,849,853,854,852,851,852,855,855,852,847,846,844,847,849,849,849,851,851,853,849,847,842,843,844,847,843,844,843,845,850,847,845,843,841,838,843,841,846,842,838,841,839,842,842,836,836,835,831,834,836,836,833,836,836,837,835,833,825,822,824,827,834,835,831,832,832,832,837,835,832,831,832,838,844,847,846,844,842,845,846,843,841,839,845,851,855,855,856,860,866,864,866,867,867,874,879,882,884,884,887,892,890,891,886,879,876,876,878,876,875,870,869,865,863,858,851,847,846,844,846,844,842,839,836,840,840,840,840,839,839,836,839,836,839,834,832,827,821,813,807,795,791,795,813,840,878,917,959,1001,1032,1064,1091,1117,1138,1154,1166,1175,1177,1168,1149,1116,1075,1009,943,887,854,841,844,857,865,872,866,863,853,842,831,824,825,827,830,830,827,823,823,825,832,833,831,829,827,831,832,832,831,827,830,829,832,831,828,825,823,829,833,830,834,833,835,836,841,840,836,832,834,832,833,830,832,835,839,845,848,845,842,838,838,838,846,850,849,848,849,851,850,848,847,844,842,847,849,850,851,851,853,856,860,861,856,851,851,851,853,854,851,850,850,854,856,855,854,852,846,845,847,850,850,852,853,851,856,856,855,853,847,845,843,850,848,850,847,847,846,845,846,845,845,845,845,851,849,848,847,847,846,850,851,844,839,842,838,842,845,847,843,842,842,845,843,843,841,843,841,847,846,845,845,845,847,852,851,847,848,848,851,855,863,862,862,864,868,874,876,876,877,879,883,887,889,888,891,892,894,897,896,888,880,877,877,878,879,880,881,878,879,873,865,860,857,856,850,851,850,848,843,845,848,848,847,845,841,842,844,847,846,846,841,839,831,823,810,803,805,818,842,875,915,956,999,1042,1077,1109,1132,1148,1157,1162,1165,1161,1150,1139,1121,1093,1048,990,929,879,851,844,851,863,874,880,876,871,861,854,845,835,828,824,824,830,835,835,835,831,833,833,835,834,834,833,829,832,832,834,831,833,836,837,839,838,830,826,826,830,837,838,839,837,838,841,843,843,837,837,836,839,840,839,839,841,840,841,844,843,839,836,841,847,848,850,844,844,845,850,852,853,849,847,847,847,855,853,853,853,858,859,859,858,854,848,847,849,855,859,862,857,857,852,853,854,853,848,848,849,855,857,856,856,852,856,855,853,853,849,845,845,846,854,852,856,851,850,847,846,847,846,846,840,843,846,847,846,843,838,841,839,839,838,831,832,835,837,841,840,839,835,836,835,837,839,834,835,834,835,840,843,842,839,838,838,839,840,837,834,833,834,837,846,849,841,840,838,835,839,841,838,838,837,842,851,857,853,853,849,848,850,856,860,862,865,865,869,880,883,885,880,879,875,876,881,878,879,877,877,877,874,872,866,861,863,861,858,850,844,845,842,845,845,849,841,838,833,833,831,832,831,834,834,834,837,836,835,830,826,825,825,822,815,807,798,791,792,804,824,844,874,907,945,988,1028,1062,1091,1118,1140,1157,1165,1166,1154,1143,1131,1127,1111,1083,1037,973,915,871,843,836,836,839,849,852,852,846,839,827,821,819,820,818,816,813,819,820,825,825,823,822,823,823,822,824,821,815,815,818,821,826,827,821,821,823,823,822,822,821,817,821,827,827,827,826,824,824,827,831,830,827,824,826,831,836,837,834,832,831,832,832,833,833,831,834,837,842,841,839,841,836,837,835,838,838,840,838,839,846,847,848,847,845,845,846,843,839,838,839,843,847,842,843,843,842,845,844,842,838,835,838,838,840,837,839,839,839,839,840,833,832,834,839,839,838,840,837,833,834,835,834,831,826,825,826,829,830,830,825,822,822,821,816,815,810,810,810,819,823,824,822,818,815,821,822,821,819,820,822,825,826,826,826,827,827,827,825,825,820,829,834,837,838,837,841,843,845,843,845,841,846,853,862,867,871,871,873,867,870,865,861,862,859,863,866,867,861,859,859,859,863,857,853,842,835,833,830,833,830,826,827,826,828,826,821,816,816,819,823,823,820,815,817,819,822,817,812,799,785,779,777,781,794,814,845,888,935,973,1012,1048,1083,1116,1141,1152,1158,1154,1149,1139,1118,1081,1029,965,906,862,835,824,823,836,847,853,846,835,825,818,812,808,803,802,802,806,810,814,813,809,806,804,808,807,809,810,809,816,820,819,816,809,806,805,809,809,810,807,807,811,815,817,817,811,809,810,812,813,814,815,818,820,822,821,819,817,815,816,821,819,817,817,817,823,826,825,822,819,823,824,828,829,827,824,827,828,834,830,831,829,828,832,832,836,834,833,832,833,837,836,837,834,828,824,827,829,832,829,827,829,834,837,836,834,828,829,830,830,829,831,831,832,834,838,836,832,829,826,823,826,827,829,826,825,826,828,827,822,818,818,817,818,819,817,817,818,824,823,822,818,815,816,818,814,815,817,816,821,825,832,829,826,824,824,827,832,830,831,831,835,840,843,847,851,850,856,862,865,868,867,866,865,868,869,868,864,862,862,860,860,859,855,856,859,864,860,850,844,837,833,834,834,833,829,826,829,830,828,826,825,823,823,824,823,822,823,826,827,824,815,802,790,777,777,785,798,823,856,896,938,977,1007,1034,1061,1091,1115,1135,1147,1154,1154,1153,1146,1135,1104,1057,996,929,877,845,832,830,837,847,859,861,855,846,831,821,812,813,810,810,812,810,812,817,820,816,811,810,810,814,814
