829,828,828,823,824,823,823,822,825,825,824,826,827,830,830,830,828,827,826,823,823,824,828,831,829,829,827,826,827,827,825,825,827,828,832,834,834,834,832,832,834,832,830,828,832,831,833,835,836,837,837,833,832,831,830,833,835,837,838,838,839,838,838,838,837,834,832,834,835,836,838,841,841,839,839,837,839,838,834,835,833,835,835,839,840,836,838,836,835,832,834,836,837,838,834,841,843,843,841,840,836,839,836,839,841,842,850,854,854,855,853,853,850,848,848,851,853,852,855,856,857,857,855,854,853,855,855,855,855,854,854,855,852,850,849,845,844,842,840,842,843,844,845,845,848,848,847,846,845,845,847,848,851,854,859,866,880,895,914,936,958,977,996,1008,1015,1022,1029,1039,1044,1042,1033,1016,998,977,951,926,909,897,890,886,877,872,865,859,854,854,852,854,858,859,861,859,859,860,859,859,860,860,860,860,862,864,865,868,869,869,868,866,864,862,864,865,870,873,875,877,874,874,871,868,870,870,871,870,874,876,878,881,879,881,882,880,878,877,876,874,871,876,875,880,881,883,883,882,881,884,883,883,886,887,889,889,887,889,891,888,886,887,888,888,889,891,888,890,892,889,889,889,886,885,885,886,889,890,890,889,887,883,879,874,873,872,872,871,871,869,866,868,869,866,865,862,857,858,855,855,853,853,855,857,858,859,857,857,853,851,848,849,850,850,849,850,850,847,849,847,847,845,842,845,844,844,846,846,844,843,840,838,837,836,834,837,838,838,838,838,837,835,834,833,832,834,833,831,833,834,835,836,836,836,836,833,832,831,829,831,834,833,838,838,839,839,838,835,833,835,836,837,835,835,835,838,840,839,840,840,838,840,840,839,842,841,840,842,842,843,841,840,839,836,837,836,840,841,843,846,843,842,840,841,843,839,842,842,843,841,842,845,843,844,842,839,838,841,839,839,842,843,843,844,842,844,842,841,841,838,839,839,842,843,844,846,848,847,847,841,840,840,839,840,842,844,842,842,843,845,846,844,842,842,843,845,845,847,849,851,851,854,856,855,855,855,855,855,853,855,856,859,862,859,859,857,855,851,853,854,854,855,857,856,856,856,855,852,848,848,845,843,842,842,845,846,845,844,843,841,843,840,842,844,843,847,850,849,852,854,857,862,872,885,905,927,954,976,990,1005,1012,1016,1020,1020,1026,1029,1026,1016,1001,985,970,956,940,923,909,895,880,872,866,859,856,851,848,848,849,849,848,849,853,852,850,853,853,851,856,859,857,858,860,860,858,858,856,858,861,862,863,866,867,867,867,867,867,868,866,866,869,869,869,870,870,872,873,872,871,872,873,875,875,876,876,877,880,878,879,877,877,876,876,879,880,883,885,886,886,887,887,885,884,886,884,886,889,891,893,895,896,899,896,894,893,892,891,889,892,892,892,893,895,892,891,887,883,880,879,881,880,880,880,879,880,880,877,874,872,867,866,863,863,864,864,866,867,867,865,865,863,859,857,856,857,862,862,862,864,864,862,860,860,858,857,857,857,858,858,858,861,862,860,858,856,854,853,852,854,857,856,857,859,857,858,854,853,851,851,851,853,853,851,853,854,853,854,852,855,853,851,852,852,854,855,857,857,856,858,858,856,853,854,854,853,854,858,859,860,859,861,861,855,853,853,856,857,859,859,861,862,861,861,859,860,858,858,858,861,863,863,864,864,863,860,861,861,861,860,860,861,863,865,867,867,867,866,865,866,864,864,865,865,868,867,869,870,869,871,868,866,864,865,864,866,865,870,870,872,870,869,867,868,868,867,868,867,867,871,875,876,877,880,881,878,878,877,875,878,881,881,881,884,884,883,881,877,875,876,879,880,881,882,885,886,884,883,880,879,877,871,870,869,871,872,871,870,873,873,871,872,871,871,872,869,874,875,876,877,882,885,886,892,905,921,943,967,992,1013,1033,1044,1049,1054,1062,1067,1072,1073,1069,1059,1048,1036,1021,1003,983,963,940,922,909,899,890,887,885,886,888,887,888,887,883,883,884,884,884,883,886,888,887,887,890,889,891,887,888,886,885,887,890,889,889,892,894,895,895,893,893,894,893,892,894,896,898,900,898,899,898,898,894,892,897,900,901,904,906,908,907,908,907,906,905,905,904,904,906,908,909,909,909,910,908,908,908,907,908,907,910,914,916,915,915,913,910,910,907,908,908,908,907,909,909,908,907,905,904,901,897,895,894,894,896,892,896,895,893,892,888,886,882,879,877,878,878,881,881,883,882,879,876,875,873,870,870,872,873,874,876,877,874,876,875,872,872,869,869,869,870,872,873,875,874,871,870,868,867,867,867,868,870,870,866,869,868,865,862,863,863,860,860,861,864,866,866,866,863,862,863,861,858,857,858,858,862,863,865,865,865,863,861,860,857,856,857,859,862,862,861,861,860,860,861,858,859,858,859,863,864,863,864,866,866,866,865,864,859,861,860,861,860,860,864,866,864,865,867,865,864,862,861,862,864,865,866,867,868,865,867,865,863,863,860,863,866,866,865,868,868,868,867,865,865,865,865,863,864,864,869,869,869,868,868,867,866,866,866,867,865,865,870,873,873,874,870,871,869,868,873,874,878,881,883,887,887,883,882,880,878,882,881,881,884,885,886,886,886,883,882,884,883,882,882,883,882,880,880,881,880,877,875,872,870,868,866,868,869,872,874,874,874,875,872,873,871,872,874,876,876,880,885,892,905,928,951,979,1000,1020,1034,1045,1053,1062,1074,1077,1074,1061,1043,1023,997,972,949,929,916,905,899,895,891,887,883,879,880,881,881,882,884,883,886,886,887,887,883,885,883,881,879,880,885,886,888,890,893,891,890,888,887,886,886,886,890,893,894,893,892,891,893,891,891,889,892,891,892,894,898,899,897,897,900,896,894,893,892,894,895,899,899,901,901,902,905,902,900,901,900,900,901,903,907,908,908,907,906,905,903,903,902,903,903,905,904,906,902,902,902,899,897,895,895,895,894,894,894,896,893,890,884,884,881,880,879,877,878,876,878,878,876,878,874,874,873,867,868,868,869,867,870,871,872,874,871,871,869,867,867,866,868,867,867,869,869,867,865,863,861,858,859,858,861,860,863,863,862,859,858,855,855,854,854,854,858,857,858,860,854,857,855,853,851,850,850,851,853,856,855,856,857,857,852,853,851,847,846,848,851,853,854,854,857,853,852,852,852,850,849,848,851,853,856,858,858,857,855,856,857,854,856,856,857,859,859,862,861,860,859,857,855,856,855,856,856,858,860,862,863,864,861,862,859,856,858,859,858,858,859,864,863,865,863,863,861,859,859,859,861,861,862,864,864,864,864,862,860,861,859,861,862,860,865,866,866,865,861,862,861,859,861,861,862,865,865,866,869,870,875,877,879,880,879,879,880,881,882,884,886,884,884,885,884,879,880,880,882,884,886,888,885,883,877,874,876,871,867,864,865,868,869,870,871,871,871,868,865,865,867,868,870,871,873,876,876,876,877,885,897,915,937,960,983,1003,1020,1031,1035,1040,1047,1056,1063,1070,1064,1058,1045,1031,1012,998,977,957,940,924,912,903,894,888,884,880,878,882,882,883,885,884,883,882,881,880,881,883,885,887,888,888,889,889,887,887,886,885,890,890,891,892,893,894,893,894,894,892,891,893,894,895,898,897,897,898,897,896,897,898,897,898,898,900,898,902,901,901,902,901,901,900,901,901,904,904,907,910,911,908,908,905,903,905,905,904,908,910,910,910,910,909,908,909,906,906,904,906,904,904,900,900,901,899,898,898,894,891,890,884,883,882,882,882,882,882,879,877,875,874,872,870,871,871,873,870,871,872,872,869,869,867,867,868,867,865,866,867,869,870,865,864,863,857,859,859,858,858,860,861,863,862,861,859,854,855,852,850,851,854,855,857,857,856,856,855,853,851,846,849,850,851,851,855,855,853,855,851,850,848,847,847,849,852,854,854,852,853,851,850,850,848,847,849,848,851,852,853,856,854,856,857,856,854,851,853,854,856,858,860,859,857,854,853,852,854,853,854,854,858,858,861,861,859,858,853,852,852,852,855,855,860,861,863,863,861,862,860,858,858,858,855,856,859,861,862,860,861,862,859,857,858,858,858,860,860,863,863,861,861,862,861,861,860,860,857,860,861,866,869,870,872,873,874,870,872,869,872,877,880,883,884,885,884,882,883,880,879,876,878,879,878,880,877,877,873,870,869,866,865,861,859,857,855,852,854,855,853,855,852,852,852,852,850,853,855,858,859,859,862,864,869,877,894,914,941,969,994,1014,1028,1033,1035,1041,1044,1051,1051,1043,1030,1017,998,980,964,946,928,916,901,891,883,875,870,866,865,863,865,868,868,867,867,868,867,864,867,868,871,869,873,874,876,875,872,873,873,872,875,877,877,878,881,880,880,879,879,876,879,878,879,878,881,884,884,886,886,884,883,885,882,879,884,885,887,888,889,889,892,890,890,889,890,889,890,891,894,895,898,897,898,898,895,894,894,895,894,896,898,899,900,900,901,902,898,894,893,894,890,893,895,893,894,893,891,890,886,886,882,879,873,873,873,875,875,872,872,871,869,863,861,860,859,861,858,863,865,866,865,862,861,859,859,859,860,860,860,862,865,863,863,860,859,856,857,856,857,856,857,858,857,857,857,856,855,852,852,852,850,854,855,854,857,855,852,852,847,847,848,847,845,847,849,850,852,853,853,852,850,848,848,850,848,848,849,851,853,852,851,851,849,850,850,849,850,851,852,852,853,854,851,853,850,851,852,849,850,851,856,855,858,856,856,856,857,856,852,851,853,855,853,855,858,856,856,856,856,855,854,852,853,854,856,859,860,860,861,859,858,856,857,853,854,854,857,860,860,861,860,860,859,859,855,854,853,854,859,860,863,865,866,868,867,868,869,866,866,870,873,872,877,878,879,880,882,881,877,876,878,877,878,879,878,875,872,870,868,867,866,862,858,855,855,852,853,853,854,853,853,852,852,851,853,853,855,856,859,861,862,863,861,863,866,872,886,905,932,960,987,1009,1026,1039,1046,1048,1052,1056,1058,1055,1045,1031,1019,1004,987,967,947,928,910,896,883,872,868,865,864,863,862,863,864,863,861,862,861,863,864,865,866,867,868,865,864,864,865,864,864,868,869,870,872,873,873,871,870,869,866,869,868,872,872,873,877,875,876,876,874,877,875,872,872,873,875,877,878,877,877,878,880,880,878,879,878,879,879,881,882,885,884,884,885,884,883,880,882,882,885,885,887,890,889,887,885,883,882,881,880,881,882,882,885,883,880,878,876,872,871,866,866,868,868,866,865,863,859,858,854,852,849,847,847,845,847,847,849,849,849,848,844,845,844,840,839,840,843,841,842,845,844,844,842,842,838,839,838,839,841,841,842,842,841,840,838,833,831,829,828,829,834,833,836,837,833,833,829,829,828,827,826,827,829,831,831,830,831,829,829,825,824,823,823,821,824,828,830,830,829,829,827,826,824,823,824,826,824,825,826,830,831,829,829,828,828,823,826,827,827,829,832,834,832,832,829,830,829,827,828,832,831,835,833,836,834,834,833,832,830,830,830,831,832,832,835,835,838,837,833,834,832,832,832,833,837,838,838,839,839,835,834,836,835,834,836,837,837,839,840,840,839,839,838,837,835,835,835,836,838,839,840,842,844,847,845,849,850,849,849,852,854,856,860,861,862,864,863,865,864,863,864,862,866,865,867,865,863,860,857,855,852,852,851,851,850,848,845,844,842,840,837,838,836,838,836,836,839,839,844,844,843,842,844,846,848,855,862,874,894,914,940,965,986,1006,1017,1027,1034,1038,1044,1048,1048,1039,1024,1011,992,976,962,944,927,908,894,880,869,864,860,856,853,851,850,850,849,848,850,851,852,854,858,858,856,855,855,856,854,854,855,855,857,857,861,863,861,860,856,856,859,858,856,860,862,864,866,865,865,865,865,864,863,861,864,866,866,865,866,868,869,869,867,867,867,865,863,866,867,867,871,873,872,871,868,871,870,870,871,872,873,876,878,878,878,878,877,875,874,871,874,874,874,875,876,875,874,876,872,871,867,867,865,864,864,864,865,864,861,859,856,852,848,845,844,844,843,842,842,842,839,840,836,834,832,833,833,832,832,835,836,835,837,836,833,834,831,833,832,831,830,832,830,833,834,834,830,831,827,828,825,824,826,825,826,828,826,827,827,823,822,820,819,821,822,823,822,822,823,821,819,818,815,813,818,820,819,822,824,824,823,821,821,820,817,818,817,815,819,822,824,827,826,825,823,822,822,822,821,821,824,825,827,825,829,828,827,826,823,822,825,826,828,829,830,829,830,828,827,823,822,823,824,826,827,828,831,833,831,830,828,829,826,829,829,830,832,832,835,836,835,832,831,831,831,829,831,830,829,832,834,833,834,832,832,831,829,829,828,828,832,833,836,838,838,840,841,842,842,844,846,847,850,852,854,855,859,862,859,858,859,860,862,862,862,862,864,864,863,858,854,851,848,846,845,847,848,844,844,842,838,838,837,833,835,834,834,835,836,836,838,840,841,841,839,842,841,841,845,847,856,870,888,913,937,962,984,1004,1018,1026,1035,1041,1048,1047,1040,1026,1009,988,967,945,925,906,889,875,864,856,852,849,849,848,849,848,846,849,848,848,848,851,851,855,854,853,854,854,851,852,852,853,856,856,858,858,859,860,857,857,857,856,857,858,860,861,863,860,860,861,861,859,861,862,861,861,862,863,867,865,863,866,863,862,861,861,862,864,866,870,871,872,872,873,872,871,871,870,872,872,874,875,875,878,878,877,877,875,875,873,872,873,873,872,871,872,871,872,869,866,861,859,858,856,858,857,856,854,853,851,846,843,842,839,837,834,835,835,837,838,837,836,835,836,832,833,832,833,834,833,836,838,835,835,835,834,832,830,831,830,831,832,833,833,832,832,828,827,826,827,824,826,824,827,829,831,829,827,824,822,820,820,821,820,820,822,820,823,819,818,818,817,817,816,813,816,816,815,817,819,821,820,818,816,814,815,815,816,816,817,818,818,819,819,816,815,815,814,811,812,814,815,819,819,820,819,819,817,814,816,817,818,818,822,821,822,821,821,821,819,820,818,818,818,821,821,821,825,821,825,823,823,821,822,820,821,821,823,826,823,824,824,823,824,821,820,821,820,823,825,827,827,828,828,828,825,826,825,826,825,825,828,830,830,831,831,829,829,826,827,825,827,831,831,835,837,839,839,840,841,840,838,838,841,844,847,849,853,853,853,852,855,853,850,848,849,851,852,849,848,846,844,842,841,841,839,836,831,832,831,834,835,835,833,831,833,831,828,827,830,834,835,839,839,840,844,844,849,855,864,878,899,923,944,969,988,1004,1014,1020,1024,1028,1026,1021,1013,998,985,975,960,942,929,912,896,881,868,858,849,844,840,843,843,845,843,843,843,840,840,840,842,843,843,847,847,844,846,846,844,843,843,845,843,842,844,848,850,850,851,849,848,847,848,847,848,848,852,854,856,853,855,856,851,851,852,850,854,855,854,857,861,860,860,859,858,855,856,857,860,862,863,866,863,868,865,864,865,863,861,865,866,865,868,871,871,870,868,867,866,865,863,863,863,863,862,864,864,861,860,857,854,851,849,848,845,845,843,844,844,841,838,838,835,833,829,827,827,827,826,828,830,832,831,829,829,825,826,826,827,826,830,831,830,828,826,825,825,823,823,826,827,825,827,827,828,828,826,825,825,822,819,820,819,821,823,823,824,823,820,821,821,819,818,815,819,818,819,819,821,821,822,818,817,815,817,814,815,815,817,820,819,820,818,817,813,814,815,814,816,817,818,821,823,821,822,822,819,819,817,818,817,821,821,824,826,826,826,825,823,822,820,817,819,821,821,827,829,828,826,827,825,823,824,824,824,823,826,828,828,831,829,827,826,824,824,827,825,827,829,831,829,830,830,828,829,829,826,827,830,832,833,833,834,836,833,829,831,831,828,828,830,835,833,835,837,835,837,835,834,833,832,832,833,833,836,838,836,839,840,838,837,836,838,839,840,844,848,852,850,854,854,850,850,849,850,849,849,854,854,856,857,856,856,856,854,853,853,853,853,853,850,850,851,849,849,849,842,840,835,833,834,834,835,836,837,836,838,837,837,836,836,837,838,839,843,843,847,848,851,852,862,872,887,910,937,962,987,1005,1023,1030,1036,1042,1044,1047,1047,1039,1030,1019,1006,995,979,959,938,917,898,881,868,861,854,851,848
