835,847,852,850,840,832,826,822,821,816,815,817,823,824,817,816,817,826,827,830,828,824,823,825,826,826,825,819,818,827,830,832,830,826,826,826,828,828,828,822,825,829,838,840,839,836,835,833,836,840,836,837,837,840,841,846,846,844,840,843,844,846,843,841,839,844,847,851,853,852,848,846,847,850,846,847,844,849,850,854,852,851,846,844,848,847,846,844,837,835,841,847,850,847,841,838,837,839,842,841,836,837,841,844,844,847,841,839,838,839,839,840,835,837,837,841,839,841,837,834,829,829,828,833,831,829,826,830,832,833,829,823,817,820,822,824,823,823,824,825,829,829,825,825,822,821,826,828,830,829,832,835,835,835,833,829,831,834,834,838,837,834,840,843,850,852,853,850,852,854,862,867,872,870,875,879,881,881,874,872,867,869,869,865,862,862,859,864,867,867,860,850,846,836,834,834,834,829,827,826,828,828,827,826,820,815,819,822,822,824,822,823,823,823,818,811,800,790,779,781,787,803,829,863,908,952,993,1031,1064,1093,1118,1140,1150,1149,1144,1138,1135,1127,1113,1087,1043,982,919,865,831,814,816,823,836,843,848,839,827,816,810,809,808,809,807,809,807,811,817,814,813,807,805,810,813,814,816,814,813,814,816,816,815,812,807,808,811,814,818,818,816,817,818,821,820,817,815,818,821,824,826,828,827,830,828,831,829,827,829,832,834,837,835,832,836,834,836,839,841,836,832,831,835,836,838,839,839,838,839,839,841,838,834,836,837,842,846,842,840,836,835,838,837,836,831,829,829,833,836,834,833,831,831,830,830,828,825,824,827,829,833,832,831,828,827,831,830,829,826,820,818,818,824,822,818,816,820,821,818,813,811,810,810,815,814,811,810,813,814,815,811,809,808,807,811,813,812,814,818,818,822,819,815,816,816,819,818,820,818,819,817,827,831,829,825,825,826,826,830,832,837,838,845,850,856,859,858,860,863,865,868,869,870,868,864,867,864,860,855,847,846,850,854,851,848,845,841,836,830,824,820,818,819,818,816,811,813,818,822,820,818,815,813,814,818,815,807,803,794,788,782,779,792,813,843,881,922,960,994,1030,1069,1105,1135,1149,1155,1148,1148,1136,1125,1104,1070,1017,950,889,842,813,806,816,829,837,836,830,818,809,808,806,806,803,799,801,804,806,802,799,802,802,806,812,809,807,809,811,809,805,803,804,807,810,816,814,813,813,814,817,815,815,808,809,809,815,819,820,820,819,820,823,825,820,819,820,823,827,827,824,825,829,830,832,834,828,827,829,831,837,836,834,837,839,839,839,838,835,833,834,836,838,838,836,837,838,841,838,830,831,832,830,833,833,832,830,834,833,830,829,825,824,827,828,829,828,824,826,829,834,827,826,823,820,822,822,823,823,822,821,825,826,824,817,812,810,811,811,815,813,810,808,810,814,816,817,811,805,806,807,811,814,814,813,812,819,818,817,816,814,813,815,818,820,820,820,821,821,822,825,825,822,823,825,828,832,835,835,835,837,842,844,846,846,847,850,856,865,870,872,868,867,865,867,867,860,858,856,854,858,857,854,853,850,849,848,848,839,831,823,822,824,827,828,828,824,822,821,822,821,821,815,812,812,814,821,823,819,816,816,811,802,792,778,771,772,790,812,838,867,898,932,965,1001,1034,1069,1098,1132,1151,1167,1170,1166,1157,1140,1118,1081,1024,954,895,848,827,824,835,842,850,844,848,843,838,825,817,808,809,812,815,813,810,809,804,806,808,808,809,811,812,815,819,816,815,813,808,810,815,819,819,818,815,817,820,821,821,820,815,814,818,818,819,817,818,818,822,827,827,828,824,819,824,825,829,827,833,834,832,836,840,835,831,829,828,833,834,836,838,831,835,837,838,842,839,834,834,839,844,847,847,845,844,844,845,846,848,841,837,837,841,844,844,843,843,841,840,840,838,835,833,832,833,841,844,842,842,839,842,840,837,834,831,831,832,835,834,831,832,834,839,840,839,833,829,830,826,827,825,824,822,824,823,822,820,819,818,821,821,820,818,817,819,824,825,824,822,819,820,822,822,827,825,829,832,837,837,837,832,829,830,832,836,839,837,839,840,841,848,848,851,847,853,858,862,866,870,873,877,879,880,879,877,872,871,871,873,874,871,870,872,873,874,871,862,855,849,844,844,843,841,840,842,844,840,836,829,825,830,831,834,836,833,831,833,834,829,821,811,799,793,788,792,804,832,862,903,946,983,1014,1044,1075,1109,1138,1157,1167,1170,1172,1169,1160,1140,1111,1062,1005,945,896,863,844,842,848,858,869,873,862,851,838,829,824,824,820,822,824,828,833,833,830,825,820,818,819,823,826,830,829,835,837,839,833,828,829,827,827,831,827,826,828,833,834,836,835,829,827,829,832,834,837,836,836,840,841,844,839,834,832,834,838,839,846,845,843,844,851,852,852,848,846,843,846,850,851,851,851,855,856,858,860,853,852,850,853,854,854,854,856,858,863,864,861,856,850,849,852,857,857,859,853,850,855,854,855,852,851,850,852,857,857,854,857,855,856,857,854,854,851,845,847,852,854,851,848,852,852,852,853,853,845,839,844,845,846,846,843,840,839,843,842,838,834,833,837,842,841,845,842,843,845,847,848,844,840,841,842,843,845,849,848,851,850,854,858,857,857,855,857,861,862,866,865,865,866,870,874,876,875,876,884,891,895,896,895,894,896,896,899,895,889,886,882,884,888,887,885,885,884,885,882,874,870,863,859,860,862,863,858,854,857,855,857,854,851,847,844,845,848,851,853,849,849,846,848,844,833,821,810,812,819,837,862,896,935,976,1021,1057,1087,1113,1133,1155,1170,1179,1174,1170,1159,1147,1134,1101,1055,989,928,880,856,850,854,867,880,884,883,874,861,847,842,836,840,839,842,842,843,844,846,845,845,841,842,844,846,850,850,850,849,848,850,850,844,841,842,842,847,849,852,852,850,851,850,851,851,849,848,845,851,854,856,856,858,857,858,859,859,858,854,857,862,866,868,867,866,863,866,867,867,865,860,864,868,874,871,872,870,873,875,872,872,868,869,871,872,871,871,868,871,872,871,865,863,861,864,864,866,865,864,866,870,871,869,864,856,859,862,861,860,857,860,864,865,865,864,860,856,855,858,857,856,854,852,851,853,856,853,847,842,840,843,844,845,844,842,843,844,845,849,845,841,840,838,839,841,847,844,845,851,850,853,848,845,840,842,845,848,851,847,852,852,852,856,852,850,852,855,857,860,863,862,863,867,870,877,878,879,877,881,887,893,893,891,891,893,895,896,892,885,887,880,881,878,878,879,878,881,877,869,863,853,849,850,850,849,850,847,849,849,851,850,843,840,840,845,845,845,843,842,841,844,840,830,819,805,806,815,832,860,891,930,973,1015,1052,1083,1112,1136,1153,1162,1166,1164,1159,1150,1140,1128,1101,1049,983,919,870,847,839,844,855,865,871,873,865,856,839,836,825,826,829,829,829,828,829,831,837,837,833,829,830,833,834,834,838,834,835,838,840,839,834,832,831,833,836,838,838,841,842,841,843,846,843,838,834,837,842,844,847,846,847,850,854,853,852,846,846,847,852,853,856,852,852,854,859,863,862,857,855,853,852,854,859,859,860,864,864,861,861,861,857,856,859,863,866,864,860,862,864,862,863,858,853,854,851,855,859,858,858,856,853,852,854,853,851,850,849,851,854,856,851,850,853,855,855,853,847,845,846,849,851,848,844,848,849,847,846,841,834,833,830,830,837,838,835,835,833,838,836,837,835,833,831,833,834,838,837,836,836,839,842,838,836,834,832,833,840,843,843,842,838,840,845,845,843,842,839,841,847,856,855,858,854,857,860,864,867,868,868,869,873,882,889,891,891,888,890,889,893,889,886,878,882,881,878,875,876,876,875,867,863,858,848,850,849,853,852,849,843,839,836,840,840,839,833,834,837,840,845,848,842,840,837,833,832,828,816,807,801,798,806,822,841,868,899,942,982,1020,1053,1084,1114,1143,1164,1174,1176,1169,1158,1146,1137,1121,1089,1043,980,921,877,857,847,851,849,860,866,867,861,852,841,829,825,825,828,828,825,819,820,825,827,827,827,825,824,827,834,837,831,826,823,822,824,828,832,832,829,831,835,836,837,832,831,826,832,834,838,837,838,840,841,846,845,842,838,838,835,840,844,846,841,843,842,846,846,847,844,843,841,845,850,855,852,857,850,853,856,855,854,851,849,852,859,859,858,857,860,859,861,856,855,853,853,855,853,852,853,853,852,857,857,853,848,845,841,844,849,854,852,852,850,851,851,852,847,846,845,843,850,854,850,849,845,848,851,849,844,841,837,839,842,844,844,839,837,835,833,832,830,826,825,830,830,836,835,833,831,833,831,831,829,830,828,832,832,841,839,839,836,839,836,835,835,833,837,839,839,839,840,845,847,852,854,851,849,847,850,857,861,864,865,871,875,879,881,883,883,881,884,883,882,879,875,878,880,880,878,874,867,866,866,867,867,862,857,852,846,847,846,844,840,833,831,832,837,841,836,835,832,833,832,835,831,829,827,830,827,823,815,803,797,794,805,822,850,888,931,979,1019,1055,1091,1122,1147,1161,1167,1164,1156,1146,1134,1122,1099,1054,992,931,881,849,835,835,842,850,860,858,852,845,835,825,823,823,823,820,815,815,818,821,822,823,823,822,827,829,828,823,821,818,820,822,822,827,828,827,832,832,831,826,821,820,827,830,832,831,832,832,835,836,832,830,832,832,833,835,833,831,839,841,847,844,840,838,839,839,843,843,842,840,843,847,852,847,849,845,846,845,845,847,847,847,848,849,853,855,852,847,843,841,845,847,848,845,846,844,848,847,847,843,837,838,839,842,842,843,840,841,840,844,844,840,835,833,834,838,840,840,839,837,839,838,837,839,832,827,825,827,825,822,826,826,830,830,828,822,818,816,818,819,826,825,821,821,820,823,824,824,824,821,821,822,827,827,825,826,826,830,831,834,829,824,824,826,829,831,830,831,834,836,840,839,838,835,839,838,842,849,852,857,864,871,874,873,871,869,871,873,873,873,872,872,872,870,868,863,862,857,857,856,849,845,844,841,840,838,835,828,824,826,825,824,826,821,822,824,827,829,826,823,822,823,823,821,814,806,798,792,786,791,798,811,829,863,902,943,984,1018,1049,1083,1116,1140,1159,1164,1162,1151,1141,1130,1110,1070,1019,958,900,864,839,830,830,837,849,856,850,842,831,820,816,816,815,811,807,809,814,810,813,811,817,819,823,821,820,815,816,815,817,821,818,816,820,822,826,826,822,818,815,815,817,820,817,819,819,822,831,831,828,825,823,824,827,828,827,825,825,831,834,833,836,832,833,832,837,837,837,836,836,841,844,838,838,832,833,833,834,837,842,841,841,843,852,849,845,839,838,841,844,843,841,835,838,845,850,845,842,834,834,837,834,838,838,839,838,844,844,845,837,836,838,835,835,838,835,837,836,841,842,838,837,832,832,832,835,833,830,827,825,827,830,829,826,824,823,823,817,821,818,817,821,826,828,828,825,823,822,825,825,823,824,823,830,833,834,833,827,826,827,827,825,823,825,834,840,842,846,842,842,843,843,842,845,850,854,862,870,873,877,877,876,874,878,876,876,876,875,877,879,874,873,870,867,869,870,866,862,853,847,843,843,845,846,840,838,837,834,835,831,829,827,831,836,835,836,831,830,829,826,826,821,813,803,794,792,794,803,819,845,882,925,968,1010,1047,1086,1125,1155,1174,1184,1187,1180,1173,1158,1133,1094,1040,978,921,883,856,847,846,858,867,876,871,863,851,833,829,828,829,829,828,822,820,825,826,825,825,824,822,827,832,834,835,829,827,823,826,829,827,828,828,832,837,837,833,831,826,828,828,830,832,831,828,834,835,840,838,837,834,835,834,837,836,833,836,841,845,847,848,843,840,842,845,843,844,841,848,848,853,857,856,848,847,848,850,853,852,850,850,853,858,863,860,858,854,853,854,855,855,853,854,853,859,861,862,857,853,852,850,854,852,851,849,851,854,857,855,853,849,849,847,850,851,851,851,849,848,854,856,852,844,840,840,844,843,844,841,839,843,844,845,840,842,834,833,838,838,836,834,834,835,842,842,843,841,838,833,836,837,844,843,840,842,845,846,848,849,841,838,837,840,846,850,851,848,850,851,850,855,857,854,852,852,855,865,872,877,880,883,886,889,892,892,888,884,885,890,894,895,893,885,882,882,880,882,878,874,871,874,871,869,864,856,849,846,847,848,845,841,838,842,842,844,848,845,839,834,832,837,842,840,836,833,832,828,827,820,807,795,793,805,827,853,889,928,971,1013,1049,1083,1111,1137,1158,1173,1179,1183,1180,1172,1158,1144,1117,1074,1011,944,890,861,847,848,857,868,876,875,871,862,852,841,830,826,823,826,826,824,827,828,831,832,832,830,825,827,829,831,827,827,827,830,836,836,831,828,825,830,829,834,836,834,836,838,837,843,839,837,833,833,834,840,839,838,839,840,843,850,851,848,840,842,841,842,847,850,851,848,851,851,854,853,850,844,840,842,851,852,855,853,853,851,855,859,857,854,849,849,852,857,857,861,856,857,859,857,853,850,852,852,853,856,857,855,853,854,857,856,853,849,844,845,849,854,852,854,853,852,852,854,850,844,843,842,842,843,841,843,842,846,846,843,838,834,833,833,835,834,833,832,831,833,835,835,831,828,825,829,831,835,835,833,834,835,838,837,835,833,830,832,834,841,839,840,838,841,843,844,841,842,848,849,853,851,854,859,865,871,875,877,876,878,880,883,883,884,881,886,886,890,890,885,878,874,874,875,872,873,873,868,869,868,861,857,850,844,841,839,841,840,839,833,837,843,839,838,831,830,831,835,836,836,834,829,828,825,818,810,797,788,794,810,836,871,909,950,992,1030,1071,1112,1141,1163,1178,1184,1181,1170,1151,1127,1085,1025,956,897,855,840,838,849,861,868,864,859,852,843,831,828,822,821,825,823,824,823,822,826,831,832,832,828,826,825,827,825,826,824,823,825,830,833,830,828,822,822,823,828,831,830,832,831,836,838,839,836,832,827,825,829,833,835,835,834,836,840,841,839,833,832,838,837,841,840,837,843,846,848,847,845,845,843,844,844,844,845,848,852,855,859,857,853,848,849,851,848,851,851,850,848,851,855,856,848,846,844,844,847,845,843,846,846,849,850,847,843,838,838,838,839,843,843,843,842,844,847,845,845,841,837,835,836,835,838,836,834,836,837,835,832,826,824,825,826,827,824,826,826,827,831,827,823,823,825,825,825,825,825,828,830,830,833,828,829,829,827,830,832,832,830,834,837,844,847,846,844,842,841,846,847,847,847,851,856,864,871,872,871,874,879,882,883,878,876,876,879,884,883,883,875,872,865,869,871,871,865,862,860,857,852,847,843,832,833,832,833,831,830,830,829,833,835,834,828,829,829,830,830,829,822,820,813,807,803,796,795,802,826,855,892,932,969,1009,1047,1086,1120,1147,1165,1174,1176,1175,1167,1156,1137,1113,1077,1028,970,916,874,847,841,845,858,865,864,859,851,845,836,831,826,817,814,813,814,819,820,821,820,821,825,828,827,823,820,819,820,820,825,823,826,828,833,830,829,826,824,824,828,830,829,828,826,828,833,834,831,830,828,828,833,833,833,834,833,838,843,841,842,843,842,844,840,844,843,843,844,847,852,854,852,849,849,849,851,849,850,851,853,853,860,858,850,851,845,847,852,851,853,851,849,853,854,853,848,849,850,846,851,846,843,845,846,850,849,847,845,845,845,845,843,838,838,842,847,848,846,841,837,840,840,837,832,829,831,834,836,838,835,833,830,829,831,827,824,822,822,828,832,831,830,829,828,828,828,830,830,827,828,829,837,839,840,835,832,830,833,835,835,833,834,840,845,848,848,848,845,847,850,853,854,853,861,865,876,879,882,883,887,888,885,882,879,878,877,881,879,878,873,875,875,873,867,860,853,846,845,847,845,843,840,840,841,839,835,833,831,831,833,838,840,835,834,837,838,834,826,816,807,793,797,803,815,836,866,909,950,991,1029,1059,1093,1127,1155,1172,1181,1180,1179,1169,1152,1127,1085,1029,965,908,871,846,840,849,861,865,864,854,841,833,824,821,817,819,815,818,821,826,825,822,820,820,823,825,827,827,828,826,830,832,832,829,827,827,829,828,830,831,830,832,834,836,838,833,831,827,832,834,836,838,836,836,841,842,842,839,838,836,837,843,844,843,845,843,846,853,853,850,848,843,844,846,852,850,850,851,855,857,855,858,852,852,852,854,855,854,853,856,859
