796,801,800,801,799,798,802,806,813,820,823,822,825,826,835,839,846,846,845,845,844,845,842,838,832,830,833,835,835,832,831,831,828,825,816,809,803,798,798,800,798,794,793,792,792,792,789,783,784,783,790,789,788,786,788,789,788,784,771,757,747,748,756,776,803,839,881,926,968,1006,1039,1064,1093,1120,1141,1154,1161,1156,1152,1137,1122,1088,1040,973,905,844,809,798,798,808,820,825,827,825,816,800,785,774,771,776,782,786,785,784,784,786,784,780,775,771,776,780,784,788,786,784,783,782,776,777,780,780,783,782,785,787,790,788,786,782,780,781,783,785,792,792,791,792,791,791,789,787,787,788,794,794,793,790,797,798,805,807,803,800,798,799,796,801,801,800,803,804,808,811,806,805,801,806,811,814,815,810,810,812,816,818,816,814,809,809,807,804,805,805,807,811,815,816,812,805,802,802,802,800,799,799,803,809,812,817,813,811,806,806,807,803,801,799,800,801,803,804,802,798,795,794,798,798,801,798,797,797,804,809,806,806,795,798,799,796,794,794,794,799,804,806,803,805,804,805,809,815,814,815,813,813,820,826,830,825,829,834,839,845,848,849,850,854,859,858,853,848,845,841,843,842,839,840,837,839,837,825,819,812,812,814,817,816,810,809,808,810,810,810,807,805,803,807,806,801,800,802,802,804,803,795,783,771,761,762,771,787,814,848,889,931,973,1006,1037,1069,1096,1122,1136,1144,1145,1141,1133,1122,1098,1058,998,930,869,828,809,806,814,829,839,845,842,831,814,802,793,795,797,799,800,804,805,812,814,809,803,801,802,802,810,807,809,806,805,803,805,806,802,801,802,804,809,814,812,811,809,812,815,814,815,810,804,807,812,817,814,813,814,818,824,827,822,820,816,815,817,819,822,823,826,828,831,834,834,828,823,821,823,824,822,822,821,821,828,833,837,833,829,829,827,829,826,825,828,830,836,834,833,831,829,828,828,828,825,827,827,827,827,832,833,826,822,820,824,827,826,825,825,827,833,831,829,825,821,819,822,826,827,825,822,822,827,826,826,822,820,815,817,820,821,821,821,820,823,824,828,827,821,819,819,822,824,825,823,825,826,831,831,833,828,826,828,829,836,834,837,841,846,849,849,846,842,841,849,858,860,864,868,866,874,873,878,876,871,869,872,871,872,873,868,865,873,873,874,871,865,862,856,853,852,847,842,839,847,843,840,840,835,831,830,832,833,836,834,834,839,837,839,838,835,826,822,815,806,797,797,808,828,865,907,955,1000,1038,1081,1112,1138,1156,1168,1168,1169,1158,1146,1132,1111,1082,1037,982,924,871,838,831,836,851,866,871,869,859,853,846,838,832,831,825,826,830,832,833,829,825,826,829,832,834,837,832,836,841,839,838,835,832,829,833,836,838,835,833,837,843,842,840,836,836,836,839,842,842,843,845,847,848,848,844,840,842,845,842,841,843,844,848,848,854,854,849,848,850,851,849,847,846,849,853,858,858,855,850,846,851,852,850,847,848,851,852,851,856,851,846,842,847,847,846,843,845,842,847,847,849,844,842,840,841,841,838,835,838,843,840,844,846,841,838,837,834,836,833,834,832,833,836,839,837,834,831,828,827,823,821,820,823,828,831,827,827,826,822,822,825,822,820,817,819,824,826,829,826,823,825,824,825,825,819,820,821,828,832,834,834,832,832,833,839,837,833,832,834,841,847,849,851,855,857,864,867,872,870,866,871,871,872,874,870,865,863,860,864,862,860,856,857,856,854,854,846,837,833,829,825,825,822,819,818,818,824,826,823,820,816,816,817,818,816,813,809,809,810,810,808,797,785,777,775,786,802,827,861,899,941,982,1023,1056,1086,1112,1135,1145,1150,1146,1144,1132,1125,1116,1098,1069,1014,945,883,839,814,807,816,826,837,845,845,838,826,813,805,801,801,803,806,805,804,804,809,807,808,806,800,801,804,807,808,806,806,810,812,813,812,806,807,806,810,810,806,811,808,815,815,816,816,812,809,809,810,816,818,820,819,819,824,824,822,819,818,817,820,824,826,827,825,827,831,831,832,828,822,820,821,828,829,830,832,830,831,830,832,831,831,824,823,826,833,833,836,834,828,831,830,830,827,825,820,820,821,826,828,821,824,819,823,825,822,819,816,817,819,827,826,823,823,821,822,821,823,822,819,813,811,817,822,822,819,816,815,814,815,811,809,805,806,805,807,810,812,807,803,804,804,806,804,801,798,803,808,809,809,808,806,806,806,810,806,804,804,808,811,815,817,816,814,813,812,818,820,817,819,822,823,834,835,835,839,841,845,848,844,849,846,849,855,855,857,853,849,846,849,848,844,842,837,839,841,840,835,825,815,812,812,810,808,802,802,804,809,811,809,807,804,797,804,802,801,799,798,800,801,801,795,781,776,765,767,774,788,807,839,878,919,964,1001,1034,1067,1088,1113,1130,1139,1143,1136,1125,1117,1106,1081,1027,956,887,835,802,794,794,809,823,833,830,816,804,797,791,790,790,791,789,787,794,798,801,800,796,797,798,800,798,797,795,797,802,804,803,803,802,804,804,803,806,801,800,802,803,809,809,810,808,807,808,811,809,808,807,808,812,815,816,816,815,814,816,819,819,817,813,813,818,822,822,825,819,821,820,820,822,818,817,821,824,827,825,823,826,825,823,824,821,820,820,822,825,828,826,822,824,824,824,826,823,815,814,816,819,824,821,818,815,818,819,817,815,812,813,816,820,823,821,821,821,820,820,819,816,812,804,806,812,815,813,812,810,809,810,809,806,803,798,798,802,804,806,803,801,804,807,807,803,798,799,800,803,801,803,807,809,810,812,808,807,809,810,816,818,819,819,817,819,823,827,826,826,832,835,844,850,854,855,858,859,860,860,856,852,849,847,846,844,842,842,840,839,838,836,828,817,811,809,811,816,815,815,813,814,813,815,814,810,803,800,800,806,811,812,813,810,808,809,803,791,778,766,767,776,793,811,838,879,919,960,996,1027,1055,1081,1108,1135,1151,1155,1159,1154,1144,1131,1105,1064,1010,941,885,843,825,818,824,833,842,847,841,831,823,810,807,804,805,805,805,798,797,799,801,800,801,800,805,809,812,813,813,807,802,801,804,803,810,805,802,806,810,815,815,812,808,806,807,809,809,805,805,805,813,814,819,814,812,811,813,812,811,810,810,815,820,824,827,821,817,817,820,819,819,814,817,822,826,824,830,826,825,824,826,824,824,824,821,825,829,834,839,839,833,828,826,827,832,831,829,829,830,833,835,834,833,825,822,822,825,824,823,823,827,829,834,837,837,833,829,827,822,825,824,824,826,828,830,829,825,823,825,823,828,824,822,820,822,822,825,822,816,817,817,820,818,817,813,816,820,823,824,821,819,818,819,820,824,827,827,825,830,834,841,842,838,835,837,843,845,850,853,855,860,866,872,875,878,875,869,865,869,871,870,872,869,868,867,866,865,862,859,858,857,855,854,848,840,835,836,834,834,829,826,824,828,827,823,823,821,826,831,831,830,831,824,819,819,813,802,787,779,783,794,817,848,882,918,960,1005,1037,1068,1102,1129,1148,1161,1166,1162,1155,1137,1117,1086,1037,976,911,860,832,824,831,842,852,856,858,850,841,829,818,812,812,812,814,812,813,810,813,817,816,816,818,821,826,823,822,821,819,815,817,812,809,809,811,821,820,819,818,816,819,822,822,820,818,819,820,822,819,816,819,819,822,821,816,815,818,820,824,826,824,824,824,825,828,825,825,822,820,822,823,825,825,826,829,829,830,830,825,821,822,823,827,828,827,826,827,829,828,829,827,822,819,823,826,826,825,826,826,825,822,821,818,816,817,818,824,820,822,825,825,826,821,818,814,809,810,814,813,813,813,819,820,821,817,809,807,807,808,810,812,811,811,813,817,818,814,812,810,812,813,815,815,814,815,817,819,819,815,811,816,818,818,819,822,825,829,832,834,835,835,838,846,849,853,853,856,862,863,861,859,861,862,858,857,852,847,847,847,848,851,855,850,837,835,828,826,824,819,818,818,821,823,821,816,812,811,812,813,813,811,809,809,816,820,822,814,807,799,792,781,778,775,785,803,838,881,925,967,1002,1035,1064,1091,1118,1132,1139,1143,1138,1135,1128,1117,1095,1061,1011,949,887,842,813,805,814,830,849,851,844,832,820,814,806,801,797,797,800,805,808,809,807,805,803,804,809,811,811,808,808,810,814,817,816,812,809,813,809,813,812,810,810,812,817,819,818,817,813,811,813,814,819,815,814,817,822,824,822,819,815,818,819,822,826,822,822,823,827,829,832,831,824,823,826,827,827,828,826,828,831,835,836,833,826,821,824,823,825,828,827,826,827,829,831,829,826,823,817,820,821,823,823,820,821,821,822,824,821,818,816,814,817,819,816,815,817,818,819,820,817,815,809,812,812,818,818,815,814,813,811,815,814,808,802,801,802,804,807,805,803,802,802,802,799,800,798,793,792,799,803,805,805,801,799,802,801,799,797,795,796,802,804,804,798,802,803,803,803,800,797,793,799,807,813,815,812,812,814,817,819,821,820,822,828,834,841,842,843,844,843,844,844,843,838,835,831,834,837,832,830,825,823,824,822,818,811,802,799,799,800,801,798,793,788,787,788,786,783,779,779,782,786,787,787,785,783,784,783,773,765,754,746,747,760,776,801,836,876,923,961,996,1025,1053,1078,1101,1119,1125,1126,1115,1104,1092,1074,1039,986,920,856,808,781,776,779,792,804,814,812,803,790,780,771,773,773,777,772,770,770,771,774,775,771,771,769,773,778,783,784,783,779,775,781,777,777,774,772,776,777,780,780,782,781,784,783,782,778,778,782,785,788,785,787,787,791,794,794,789,785,786,790,792,798,795,794,793,796,797,799,797,794,790,793,797,799,802,798,796,800,800,799,796,791,791,795,801,802,803,800,797,798,800,801,793,791,790,792,796,796,793,793,795,798,795,792,790,786,787,787,788,787,786,790,790,791,788,787,782,782,778,781,782,780,779,784,783,784,779,775,773,774,773,775,771,767,770,773,770,775,773,769,766,767,770,771,769,769,772,773,776,778,775,773,771,770,772,782,778,777,779,784,786,791,788,786,784,785,788,792,796,801,802,807,813,819,819,820,817,814,815,816,819,819,816,814,815,815,815,808,804,802,803,802,799,794,789,786,786,782,780,778,770,770,773,772,775,774,768,769,771,774,776,774,770,764,765,769,767,762,756,747,743,739,745,756,774,800,833,878,921,962,1003,1036,1067,1094,1107,1116,1116,1108,1097,1084,1066,1037,985,919,859,811,785,773,775,782,794,803,806,795,787,775,770,766,768,764,762,758,761,761,763,765,766,768,772,777,776,771,768,767,769,770,771,768,770,773,776,776,776,774,771,771,772,772,775,775,775,777,780,783,786,781,779,778,780,782,787,789,787,788,789,790,795,794,791,785,786,786,791,795,795,794,797,798,797,799,795,793,792,791,792,794,798,796,795,798,797,799,798,794,795,791,791,796,795,793,793,797,798,796,792,789,789,788,790,790,791,789,792,791,794,791,789,786,781,784,787,788,788,785,790,790,788,790,786,778,776,776,781,781,781,779,779,780,780,781,780,774,771,770,772,775,776,773,776,777,782,780,778,774,774,776,776,784,784,783,781,781,782,784,780,780,780,778,784,789,789,794,795,796,798,794,793,793,798,803,807,809,816,821,828,830,834,831,827,826,825,825,828,828,826,823,821,821,820,819,815,813,808,805,802,800,795,791,788,785,787,785,785,780,779,779,781,783,785,779,779,782,786,782,780,774,767,763,758,753,749,746,749,761,790,820,858,901,944,985,1027,1070,1101,1127,1143,1146,1142,1134,1114,1096,1061,1014,948,883,830,793,784,789,803,812,815,812,804,798,791,785,778,772,775,775,776,774,771,764,766,772,774,776,776,775,780,782,782,779,774,775,777,777,779,780,777,779,780,780,784,780,778,775,776,782,784,785,787,788,791,791,793,790,786,784,783,787,789,790,791,791,797,801,803,802,799,794,796,798,799,800,801,802,802,802,807,803,802,799,801,806,810,812,808,810,812,814,811,807,807,801,803,801,805,805,804,803,801,809,809,806,801,801,801,800,806,807,808,806,809,808,811,806,800,798,799,797,800,799,800,800,806,807,807,803,797,796,797,796,791,796,791,794,795,797,792,789,787,787,791,789,786,790,791,795,802,801,799,797,795,797,802,800,798,792,797,797,805,808,810,810,812,811,812,813,807,807,809,815,826,832,830,834,831,835,839,846,846,846,848,849,856,855,854,851,845,841,845,839,842,839,838,836,838,835,830,820,815,812,812,804,806,803,805,806,810,810,807,802,800,800,802,805,802,801,802,803,801,796,779,768,761,758,766,784,807,837,866,904,946,985,1019,1052,1083,1109,1132,1149,1157,1156,1153,1141,1126,1108,1080,1027,962,899,850,822,812,817,822,830,838,841,841,832,822,809,801,793,795,798,802,802,800,799,799,803,802,802,801,801,802,807,808,805,804,805,806,807,806,803,805,799,803,804,808,807,805,809,811,814,812,810,803,802,806,810,816,817,811,810,810,812,815,814,812,811,812,814,820,818,817,815,814,813,818,822,818,816,818,819,826,829,829,827,824,826,824,828,823,821,821,821,825,830,831,831,828,826,828,829,827,825,821,821,826,831,831,831,830,826,823,823,825,823,823,824,828,830,833,827,826,825,827,827,824,818,816,821,822,828,827,826,823,819,816,820,818,817,817,816,816,820,824,822,817,815,812,815,815,814,814,812,811,817,821,824,821,818,815,818,816,822,824,821,823,825,830,831,835,835,831,827,829,832,836,841,842,844,852,857,861,866,865,863,863,862,865,867,867,863,864,864,864,861,853,850,850,851,855,854,850,841,836,832,832,833,833,829,819,819,821,820,823,820,821,822,822,823,820,817,815,813,816,816,815,806,796,786,780,780,792,808,835,873,917,965,1010,1048,1078,1107,1137,1156,1163,1166,1159,1153,1146,1133,1117,1084,1031,971,908,859,829,820,823,831,847,856,850,841,831,824,817,812,806,806,806,812,814,814,815,815,818,818,824,821,819,812,811,813,817,820,821,819,821,820,822,824,823,819,818,820,823,827,828,829,824,824,827,830,831,830,825,822,825,827,832,832,833,833,832,836,835,834,829,830,832,836,838,837,840,839,841,840,841,838,834,835,834,837,840,840,839,843,844,843,840,838,837,836,842,840,839,837,839,842,843,840,837,831,830,833,833,832,834,834,838,841,844,842,837,833,834,833,833,835,831,830,831,836,837,835,829,823,823,823,824,826,826,824,826,823,827,826,822,818,811,812,817,821,822,817,820,819,826,827,822,817,813,815,818,819,823,822,825,828,825,827,823,823,821,823,827,826,827,828,832,839,840,837,832,833,832,836,842,847,849,853,860,867,872,876,871,868,868,865,870,872,870,868,863,864,863,866,863,861,855,855,855,854,849,840,836,833,831,833,827,823,818,818,818,822,824,823,820,819,821,826,822,820,816,810,813,811,804,796,787,785,790,805,825,858,897,940,985,1027,1062,1094,1123,1145,1158,1164,1159,1149,1140,1124,1108,1085,1040,978,917,865,832,819,818,826,837,840,845,838,829,823,813,810,808,812,808,809,802,801,804,807,812,810,808,812,813,814,814,811,806,805,809,812,815,815,816,815,814,819,818,817,812,809,813,815,817,820,822,822,822,823,822,821,816,819,821,825,827,828,827,828,829,832,832,832,829,827,825,831,832,834,834,833,834,837,836,831,831,829,832,832,839,841,841,840,840,838,841,840,839,834,833,833,838,836,838,836,834,835,834,833,830,827,827,830,833,837,832,830,830,829,830,830,830,825,825,827,832,833,828,829,829,831,830,823,821,819,819,822,822,820,816,817,818,820,817,816,811,809,809,810,811,814,814,813,814,814,815,815,810,810,814,817,819,818,818,819,821,821,822,819,819,818,821,819,827,828,829,831,832,836,834,834,830,830,838,846,852,861,862,864,866,872,871,864,858,862,865,866,869,867,862,861,859,858,854,847,843,840,833,831,826,821,822,825,825,823,823,817,815,813,814,815,818,816,814,819,819,820,817,812,810,802,792,787,783,780,783,800,825,858,894,932,971,1013,1050,1085,1117,1138,1155,1164,1165,1159,1145,1124,1104,1069,1015,951,890,847,821,816,827,842,849,852,842,834,822,815,810,808,807,809,812,810,805,805,804,807,810,810,810,809,812,814,816,810,808,808,807,809,809,813,809,812,813,816,817,814,814,811,816,815,818,818,819,817,820,827,822,823,817,814,818,820,823,822,827,827,830,832,834,833
