983,967,954,937,924,912,901,891,886,880,875,874,875,877,882,883,883,886,887,885,885,885,882,882,882,884,885,887,887,890,891,888,890,888,887,889,887,890,893,894,896,896,896,894,892,892,890,892,891,893,894,898,898,900,899,898,895,896,893,893,895,893,898,900,902,903,902,900,903,898,898,898,896,901,903,903,904,907,908,907,906,904,902,905,905,906,905,906,907,906,906,904,903,901,899,896,896,895,895,894,895,894,893,892,888,884,879,875,874,872,875,875,874,875,872,871,868,869,865,864,864,864,864,867,869,870,870,867,868,867,863,863,861,863,864,863,866,866,865,864,865,861,860,858,859,858,859,859,861,863,863,862,860,857,853,853,853,853,854,855,856,856,853,853,853,847,847,844,846,845,848,847,850,850,850,851,849,847,846,843,845,843,844,847,846,850,847,847,846,844,845,844,845,844,848,848,849,853,849,848,848,846,847,845,846,846,847,848,849,850,851,851,849,848,848,848,850,850,851,852,854,858,858,856,854,852,850,850,849,851,854,853,853,854,856,856,854,853,852,849,852,851,854,855,857,858,856,857,855,853,852,851,849,852,854,856,859,861,859,858,855,856,854,854,854,856,856,858,859,860,860,862,859,858,857,857,857,856,857,861,863,863,863,862,864,863,861,860,860,859,861,865,866,867,870,873,874,875,871,867,868,870,872,874,877,880,881,880,877,875,872,872,873,875,875,875,875,876,878,878,874,870,868,862,860,861,861,865,868,869,869,869,867,866,867,864,864,867,869,867,873,876,881,891,903,919,940,963,991,1017,1040,1060,1070,1077,1080,1082,1079,1077,1070,1060,1044,1035,1022,1009,993,975,957,936,920,903,891,881,877,871,874,876,880,883,884,882,879,879,877,876,876,874,875,878,880,881,879,882,882,883,881,881,880,879,881,881,885,886,885,886,884,884,885,885,885,884,887,886,889,889,892,891,888,887,886,882,883,884,887,887,887,889,890,892,892,892,890,891,889,888,888,887,888,892,890,895,894,892,891,891,891,893,893,893,897,898,896,895,894,892,891,890,889,888,888,888,889,889,887,887,886,884,881,878,878,875,876,873,872,873,870,868,869,867,863,861,860,861,860,861,862,863,863,863,862,857,857,857,856,855,858,857,858,860,861,860,859,858,857,856,854,854,855,855,857,857,854,855,854,854,854,854,850,850,850,850,850,850,852,852,852,850,846,845,849,849,847,847,848,851,849,847,846,846,846,848,846,847,847,850,851,850,849,849,845,847,847,847,844,843,846,849,850,851,853,852,849,849,848,846,845,846,848,851,853,852,851,851,849,850,847,850,848,849,848,848,853,857,854,852,850,846,848,846,845,847,851,850,851,851,852,850,850,850,847,849,845,849,848,848,847,850,851,852,851,850,851,849,847,846,849,851,851,850,851,851,848,848,848,852,850,850,850,852,853,855,854,854,854,854,852,851,850,851,854,855,856,857,856,856,855,854,853,851,851,853,853,853,856,858,857,855,856,854,856,855,856,858,863,866,867,869,869,868,866,865,863,864,865,866,867,868,869,871,871,871,871,872,869,869,865,864,864,865,864,866,862,861,858,855,854,853,853,855,856,858,860,864,862,864,862,862,862,862,865,867,873,882,897,915,935,960,981,1000,1017,1030,1039,1046,1053,1063,1069,1071,1068,1055,1040,1027,1012,995,977,956,936,918,901,889,879,873,869,866,864,866,866,867,868,870,870,872,871,869,870,869,867,868,868,869,871,873,873,878,876,875,874,872,870,873,873,873,875,876,877,879,880,880,879,878,875,876,872,875,875,877,879,881,879,879,881,879,878,877,875,876,878,879,883,884,884,884,881,881,880,880,880,881,880,883,885,886,887,885,883,881,881,879,880,879,882,885,887,888,888,886,884,883,881,878,878,873,874,875,876,875,875,871,870,868,865,866,864,863,861,862,861,864,862,862,858,858,857,852,852,849,852,854,855,858,855,855,853,853,852,853,851,850,851,851,852,853,853,854,853,849,848,847,843,845,845,846,848,848,848,847,846,845,842,839,838,833,837,837,839,841,842,839,838,836,834,835,832,831,833,834,832,835,833,833,831,830,829,829,828,828,832,832,833,835,835,835,835,830,829,830,828,830,831,832,832,835,835,834,833,833,832,830,832,833,834,836,835,835,836,835,834,836,834,833,830,830,832,833,836,839,838,840,838,837,836,835,835,836,835,837,838,840,840,840,837,838,838,836,837,838,837,837,841,843,843,840,841,840,842,842,839,839,843,841,843,843,842,843,841,842,840,840,839,840,844,844,843,845,847,849,846,845,843,843,842,842,844,845,845,847,848,849,848,849,847,845,844,845,845,846,847,850,849,852,855,854,854,854,855,855,852,855,856,859,861,864,861,862,861,859,856,856,857,861,863,865,865,862,860,857,860,856,851,851,852,853,851,857,855,856,855,854,853,851,852,851,854,856,858,862,862,864,863,867,871,874,890,909,930,959,989,1012,1033,1048,1053,1062,1065,1064,1068,1066,1060,1049,1034,1019,1003,986,967,945,924,909,892,879,872,867,863,866,868,870,869,867,868,866,866,867,869,868,872,874,875,875,874,873,874,873,870,872,871,872,877,877,877,878,876,879,877,877,874,876,876,877,880,881,881,881,881,879,878,877,875,873,874,877,880,883,885,887,883,882,880,882,882,879,880,884,886,888,889,887,886,887,888,887,885,887,889,889,890,894,893,893,892,890,889,888,885,887,888,890,890,890,888,887,884,882,881,876,875,873,871,868,869,869,867,869,867,865,864,860,857,856,855,857,856,857,855,856,857,857,852,852,852,852,852,853,854,856,857,857,854,853,850,851,851,850,851,854,854,854,855,853,854,849,851,847,845,844,843,846,846,847,847,848,845,844,845,844,841,840,842,841,843,845,845,845,843,840,838,836,836,836,837,838,837,839,841,841,841,838,838,836,836,833,837,838,839,843,844,844,841,838,839,836,834,836,837,839,840,842,844,842,842,838,836,840,838,835,835,841,842,844,845,845,846,843,845,842,840,841,840,844,842,844,845,843,842,840,840,836,838,838,840,842,842,843,842,845,845,842,840,837,837,841,840,842,843,843,842,842,843,843,841,838,838,839,840,840,845,845,845,845,842,842,841,839,839,839,840,839,844,842,845,844,845,844,839,837,838,836,838,838,840,842,841,845,843,843,842,840,840,841,844,846,847,849,849,852,853,854,853,851,848,852,851,853,854,855,856,858,858,855,855,854,854,856,856,855,857,855,856,854,852,852,851,846,842,840,840,842,843,843,845,846,847,843,843,840,842,843,846,848,851,853,854,854,857,862,873,883,901,922,946,967,989,1005,1020,1024,1029,1030,1033,1036,1044,1039,1032,1020,1006,990,972,953,930,908,889,873,860,852,848,843,845,846,846,847,850,846,846,842,843,841,842,843,845,845,847,847,845,845,843,843,842,845,845,846,847,849,853,852,853,850,849,847,848,848,848,852,853,851,853,855,853,851,850,850,851,851,852,852,852,855,855,855,855,854,853,851,851,854,853,856,859,859,862,860,859,860,858,860,860,861,863,864,867,868,869,870,870,868,866,861,862,862,862,863,864,866,866,865,862,858,859,859,856,858,856,857,855,857,857,851,852,850,847,844,844,841,839,840,841,839,840,839,838,837,835,832,829,831,832,833,833,833,835,833,833,831,831,830,830,829,828,829,830,832,833,833,834,833,831,828,827,827,824,827,827,828,829,825,825,825,823,821,818,819,819,819,821,824,823,821,823,819,818,818,815,815,816,818,820,821,822,819,819,821,819,816,817,814,818,820,823,823,825,823,822,821,819,818,818,818,818,822,823,824,826,826,826,826,826,824,822,823,825,827,827,831,831,831,832,830,827,828,828,827,825,827,827,830,831,831,834,831,830,827,829,829,830,833,835,836,836,835,834,833,833,832,832,832,831,833,832,835,836,836,835,834,834,833,833,835,835,835,836,839,839,839,837,836,835,836,835,835,834,836,836,839,840,840,839,839,838,835,835,835,835,837,839,839,842,841,841,841,837,839,834,838,837,839,840,841,843,844,846,845,847,844,846,849,851,854,853,855,855,854,853,853,852,849,845,848,850,852,852,854,854,852,852,852,849,848,849,846,846,847,846,845,845,842,843,843,842,843,839,840,839,840,842,842,843,845,846,847,846,846,846,849,854,864,876,896,911,934,955,974,992,1004,1014,1024,1030,1042,1048,1048,1040,1024,1006,982,956,932,909,890,876,867,862,857,855,853,852,852,850,850,851,850,847,850,849,853,854,855,855,856,853,850,851,853,854,857,859,858,862,863,861,859,857,854,855,857,857,856,860,860,864,864,866,862,863,862,863,864,863,863,865,867,870,868,867,868,866,862,863,862,866,866,868,871,872,872,872,872,873,870,868,869,871,872,874,877,875,877,878,876,877,873,872,873,872,873,875,877,876,877,876,871,873,870,867,868,867,867,867,867,868,864,864,863,860,858,855,854,854,854,852,854,854,853,852,850,849,845,845,844,844,844,845,847,848,845,847,844,844,842,839,840,838,840,840,842,841,840,839,836,836,834,834,834,831,833,834,832,831,833,828,826,826,827,825,823,824,825,822,827,825,826,826,824,824,822,820,821,822,822,824,826,826,825,825,822,824,821,819,820,822,822,824,824,827,826,826,824,822,819,820,820,820,822,822,826,830,829,827,827,826,825,824,824,821,827,825,824,829,830,830,827,826,826,824,825,825,828,828,831,831,829,828,827,829,826,828,826,826,826,829,830,829,830,829,830,827,827,822,826,825,827,828,829,829,829,826,826,826,825,825,827,826,830,831,831,830,831,830,831,828,824,826,827,828,827,832,833,834,835,829,830,829,829,828,827,828,829,830,832,835,834,835,835,832,829,829,828,829,831,834,832,836,838,838,839,839,839,841,841,840,841,844,844,847,847,848,848,846,845,845,843,841,844,846,849,852,852,851,849,848,846,844,844,844,845,843,843,842,840,840,839,839,836,837,839,838,837,842,843,845,847,850,849,848,846,848,850,856,868,885,908,938,968,997,1019,1037,1044,1047,1051,1050,1045,1037,1021,1005,988,973,957,937,922,906,893,881,871,865,858,854,853,852,848,848,848,849,850,848,852,852,854,858,859,858,859,857,856,856,856,859,862,861,862,863,865,864,863,859,859,861,861,862,863,865,867,868,868,870,864,864,864,864,866,867,867,867,872,870,872,871,869,869,865,865,867,867,869,871,871,870,870,871,872,871,871,869,871,869,871,872,873,876,877,873,874,873,874,872,871,870,871,871,874,874,872,871,871,868,865,863,861,859,861,863,863,863,861,859,857,854,850,846,846,845,846,847,847,850,850,846,844,844,840,838,838,838,837,841,840,839,840,840,836,838,835,835,833,831,834,834,834,837,834,834,833,832,831,828,828,827,829,826,828,828,826,824,826,828,825,822,822,820,822,821,824,827,825,824,825,823,821,819,820,820,820,823,824,822,823,823,822,822,820,818,821,823,824,822,826,829,828,827,826,822,825,823,822,822,826,826,825,828,827,828,829,826,827,826,826,826,827,827,829,832,834,832,832,831,828,828,827,829,829,827,828,835,833,832,832,833,832,828,829,830,830,831,834,836,837,838,835,833,830,829,830,831,832,835,836,836,837,837,834,834,833,832,831,832,833,834,836,838,838,837,834,833,834,835,833,834,835,835,836,837,838,836,839,838,838,837,834,835,836,837,839,841,840,839,837,840,836,836,837,834,839,841,841,843,846,846,848,847,849,847,847,850,850,850,853,854,854,856,853,849,847,848,849,851,851,852,854,859,858,859,858,856,853,853,851,851,849,850,849,850,847,849,849,846,843,842,843,846,850,848,853,856,856,854,856,856,856,856,856,858,866,875,893,917,940,965,988,1007,1020,1029,1033,1040,1049,1054,1053,1046,1033,1019,1002,987,966,948,931,915,901,890,884,875,871,867,864,862,862,861,862,862,864,866,866,868,869,869,867,867,865,864,863,866,866,868,868,872,871,871,870,871,870,868,867,868,870,871,873,873,875,875,874,872,871,872,871,870,872,873,875,878,877,877,876,875,872,872,874,874,876,879,879,881,880,877,878,878,877,876,873,875,874,879,880,884,883,883,882,882,882,882,881,879,881,884,882,883,887,886,885,884,881,879,878,876,877,879,880,880,878,875,872,868,865,862,863,862,866,863,864,865,863,862,861,858,855,854,852,850,849,852,852,854,853,850,850,848,847,846,845,842,843,842,844,846,846,843,840,838,841,839,838,838,837,838,839,838,839,838,838,836,835,833,834,833,832,832,834,836,834,834,833,831,828,828,828,827,827,830,831,834,833,831,829,827,827,827,826,826,827,831,830,832,831,833,830,831,832,828,827,830,830,831,832,832,836,835,836,832,829,830,828,829,828,831,829,834,834,833,833,833,835,836,835,836,837,836,838,842,840,839,838,837,836,838,837,839,835,835,839,842,845,844,844,843,841,840,841,841,839,841,841,842,845,843,842,840,840,839,838,839,842,845,843,845,844,844,844,843,841,841,841,839,841,842,843,844,844,844,844,842,843,840,840,839,844,841,841,844,844,847,845,845,839,839,839,841,842,845,846,850,850,852,850,853,852,856,855,857,855,858,857,859,859,858,859,857,855,856,855,858,859,859,859,860,860,859,860,860,859,857,854,852,853,854,855,854,854,850,848,847,846,844,842,845,846,844,849,852,851,851,852,852,850,852,853,855,864,881,900,927,952,976,996,1005,1010,1014,1022,1028,1037,1043,1037,1027,1011,996,977,956,937,916,900,889,878,872,865,858,856,852,847,847,850,851,851,851,850,853,852,852,854,851,849,849,849,848,847,849,854,857,861,863,860,863,858,852,853,850,849,853,855,859,859,859,861,860,857,857,856,853,854,857,857,859,858,861,862,862,864,863,862,861,861,861,861,861,861,865,869,869,870,870,867,865,858,858,861,862,864,867,867,867,868,866,868,866,864,866,866,869,871,874,873,872,870,870,868,868,865,864,862,862,864,864,864,866,864,861,856,856,851,853,853,851,851,854,852,849,848,844,843,841,839,840,839,840,841,839,839,836,836,834,834,833,832,832,833,835,836,838,836,835,832,830,829,828,826,826,828,831,830,830,829,827,827,825,823,820,818,819,820,827,827,828,826,828,824,824,823,822,820,819,820,818,821,824,827,828,830,825,822,822,820,822,826,827,828,828,831,828,828,826,829,827,829,828,829,828,829,830,833,833,832,830,830,828,831,829,833,834,833,836,837,838,837,835,833,834,832,833,837,837,839,838,838,841,842,840,841,839,836,834,836,840,841,846,846,847,846,842,839,839,835,837,838,844,845,846,846,847,844,842,840,843,843,843,843,847,848,850,848,848,847,843,841,841,841,842,845,848,847,849,850,847,846,845,847,848,845,844,844,846,848,851,852,852,854,852,852,853,852,853,854,855,857,861,861,862,861,858,855,852,854,854,856,857,860,861,864,864,864,861,860,857,851,853,852,852,853,853,851,851,850,847,847,843,847,849,849,848,849,852,853,852,854,854,855,854,854,857,866,876,895,919,950,978,1006,1025,1037,1042,1043,1042,1041,1038,1027,1018,1004,989,969,951,930,911,894,879,871,864,860,861,859,858,861,860,858,857,854,854,854,858,861,865,867,866,863,862,858,856,857,860,863,864,867,868,869,870,869,867,865,862,861,859,865,867,871,871,874,872,869,868,867,867,867,872,873,872,871,872,872,870,871,872,870,870,868,867,871,875,876,877,877,876,873,874,874,872,874,873,872,876,879,879,880,880,880,874,873,871,871,870,870,870,869,873,875,872,871,869,868,862,862,857,853,854,851,853,854,856,854,853,849,845,843,841,844,844,845,845,845,844,842,838,838,835,838,837,837,841,837,841,841,840,838,836,836,837,834,835,835,837,836,836,837,835,832,832,830,832,829,830,832,830,831,831,831,831,830,829,825,823,825,828,825,827,828,826,829,831,829,828,827,825,822,819,822,823,825,826,830,829,828,828,828,827,825,825,824,827,829,829,827,828,826,822,824,823,823,826,827,827,829,832,833,832,830,828,830,831,830,829,825,823,827,832,835,832,830,829,830,828,828,828,827,829,831,833,834,834,836,832,831,830,829,829,829,832,835,835,837,836,834,831,832,832,830,832,834,832,833,835,836,835,834,833,831,831,830,833,834,837,839,838,838,838,839,835,835,833,833,829,830,834,836,841,839,837,836,835,834
