992,997,998,997,994,990,985,981,983,984,987,986,986,990,992,992,989,991,991,993,997,1004,1005,1006,1007,1008,1013,1010,1011,1003,1002,1002,1009,1011,1012,1009,1009,1011,1016,1019,1020,1016,1013,1015,1014,1015,1016,1018,1019,1021,1025,1023,1022,1016,1016,1015,1014,1011,1005,1002,992,987,989,1001,1006,1019,1029,1044,1059,1068,1074,1079,1084,1094,1111,1134,1163,1186,1200,1197,1192,1179,1166,1137,1110,1083,1063,1048,1032,1020,1017,1018,1016,1019,1020,1020,1021,1024,1025,1025,1022,1021,1019,1019,1022,1024,1025,1024,1023,1023,1024,1025,1027,1024,1023,1025,1029,1029,1029,1029,1028,1029,1029,1032,1031,1029,1028,1027,1028,1031,1032,1031,1030,1032,1033,1033,1032,1029,1027,1026,1031,1037,1036,1032,1036,1037,1036,1037,1035,1031,1030,1035,1040,1044,1044,1043,1041,1043,1044,1043,1039,1038,1041,1044,1046,1052,1052,1050,1046,1049,1044,1046,1046,1045,1045,1049,1053,1056,1056,1049,1049,1046,1045,1043,1051,1049,1049,1052,1053,1051,1048,1043,1038,1032,1036,1037,1034,1032,1029,1026,1023,1022,1019,1015,1011,1011,1013,1012,1010,1007,1006,1003,1004,1003,1003,998,997,995,995,996,994,993,992,993,994,995,992,990,990,986,989,989,986,987,988,987,992,992,989,986,978,977,981,980,983,986,983,982,982,983,979,975,972,973,972,975,977,978,976,975,974,971,968,964,963,967,970,972,974,974,968,967,964,965,964,964,962,967,967,974,972,971,968,966,967,967,969,966,967,969,973,973,970,967,966,968,969,973,972,972,968,972,972,975,974,971,973,971,971,973,974,971,968,970,972,974,974,970,968,969,971,968,970,969,968,970,980,985,987,984,984,983,983,981,979,980,977,983,984,984,980,975,969,968,972,970,970,972,971,973,970,970,965,960,958,957,959,960,957,957,955,955,957,955,951,949,946,950,955,956,958,957,955,959,959,962,961,962,964,968,973,974,975,974,969,969,971,974,975,972,973,977,977,977,977,976,977,978,983,984,986,984,979,977,979,977,978,978,977,981,986,986,984,977,968,962,953,943,936,935,945,955,968,978,985,988,995,1003,1011,1020,1028,1046,1074,1108,1141,1160,1167,1159,1145,1132,1117,1093,1067,1043,1027,1016,1006,998,992,989,984,981,980,983,983,984,986,990,991,992,993,990,987,988,991,992,992,992,994,993,996,998,997,997,995,995,997,999,997,997,995,997,998,998,999,999,1000,1002,1004,1005,1003,1000,1002,1000,1005,1008,1006,1006,1008,1010,1009,1009,1005,1007,1005,1006,1007,1011,1015,1013,1012,1011,1015,1017,1016,1011,1010,1010,1015,1015,1020,1021,1022,1024,1025,1025,1023,1022,1019,1022,1025,1027,1031,1031,1032,1033,1035,1034,1032,1029,1029,1030,1033,1036,1039,1036,1034,1035,1033,1034,1034,1032,1034,1034,1036,1034,1032,1031,1027,1026,1023,1022,1016,1016,1013,1013,1012,1014,1010,1006,1001,1000,1002,1000,999,997,995,993,993,994,990,992,992,991,992,992,989,987,985,986,986,990,989,990,987,987,987,984,982,981,977,982,983,985,984,980,975,975,976,971,972,969,969,973,976,979,976,972,968,970,969,969,969,968,964,967,968,969,966,959,958,960,961,962,961,959,961,961,963,965,961,957,957,956,959,963,964,965,962,963,964,963,962,960,958,963,965,965,967,965,963,966,970,969,966,966,965,966,969,972,971,970,971,974,973,974,972,969,970,970,973,972,974,974,973,973,972,975,976,978,979,982,983,989,988,990,988,985,982,979,980,981,980,980,983,982,979,973,968,967,969,973,974,974,974,974,971,964,959,955,954,956,961,963,965,963,959,957,958,964,963,960,964,966,971,974,976,976,976,979,979,981,980,976,975,978,982,985,986,984,984,987,985,987,992,991,990,992,993,993,993,989,986,986,989,992,989,987,980,968,958,954,961,973,989,1008,1025,1033,1039,1043,1042,1052,1075,1114,1156,1178,1171,1153,1134,1097,1067,1037,1019,1010,1004,1003,1004,999,997,997,995,995,995,998,998,1001,1003,1005,1007,1003,1002,1002,1005,1003,1004,1006,1007,1010,1009,1011,1009,1008,1007,1003,1009,1009,1008,1008,1005,1010,1014,1017,1019,1018,1016,1016,1017,1018,1017,1013,1016,1018,1022,1025,1025,1022,1020,1019,1023,1023,1023,1023,1023,1025,1026,1028,1026,1025,1024,1024,1028,1032,1033,1031,1033,1036,1037,1034,1035,1035,1031,1035,1040,1044,1046,1046,1044,1043,1046,1043,1043,1039,1037,1037,1043,1043,1045,1045,1041,1044,1043,1042,1039,1039,1034,1035,1034,1032,1035,1032,1028,1027,1024,1022,1017,1016,1012,1011,1010,1011,1007,1004,1000,1000,1000,999,998,996,990,987,991,989,989,988,984,985,986,988,984,980,980,979,983,984,981,981,980,977,976,975,973,972,970,973,973,977,975,974,972,972,972,970,968,965,962,967,967,970,969,967,965,962,961,956,956,954,955,957,959,962,964,955,955,954,954,953,956,955,954,956,961,960,958,952,950,950,953,954,953,954,953,955,956,956,955,952,953,954,955,960,960,957,957,953,957,958,960,959,958,958,957,959,960,961,959,960,962,965,962,960,957,957,960,962,962,963,964,967,972,969,965,970,969,972,972,975,972,967,964,963,965,964,964,960,959,964,966,966,963,959,956,950,952,954,956,954,948,952,950,950,946,942,939,942,945,948,947,946,943,943,943,943,948,947,950,957,962,967,967,965,960,962,962,966,964,967,967,971,974,974,974,974,971,974,972,972,974,976,975,976,979,977,977,973,970,971,968,968,963,953,943,934,929,929,932,940,948,962,973,982,998,1008,1017,1026,1045,1070,1103,1132,1151,1156,1151,1140,1118,1087,1053,1030,1014,999,985,979,978,981,985,989,988,985,984,984,983,984,983,987,988,990,993,994,991,989,988,989,992,995,998,996,994,997,998,997,999,995,994,996,1000,1000,1002,1003,1000,1005,1004,1005,1005,1003,1002,1003,1005,1008,1005,1002,1003,1008,1009,1012,1010,1008,1007,1008,1009,1012,1014,1014,1016,1019,1021,1023,1020,1017,1012,1018,1019,1024,1025,1026,1027,1027,1030,1031,1028,1025,1024,1028,1031,1036,1039,1038,1034,1037,1034,1034,1031,1032,1032,1038,1043,1044,1042,1039,1036,1034,1033,1027,1027,1025,1023,1026,1028,1026,1023,1020,1011,1010,1008,1011,1008,1003,1000,1002,1003,1003,1002,997,993,990,992,995,992,990,987,987,989,987,988,987,985,987,988,990,984,982,981,981,983,983,982,982,981,981,980,977,975,975,975,973,977,983,978,976,974,972,971,972,969,969,969,974,973,973,974,970,964,964,963,965,965,965,968,970,973,974,970,965,962,964,965,970,969,972,971,969,971,974,968,965,965,970,972,975,974,972,971,971,971,972,973,970,972,975,976,976,978,978,978,979,980,980,977,976,976,975,977,980,981,982,979,981,978,981,976,975,972,976,980,986,990,989,989,989,991,992,989,985,986,988,994,992,992,987,981,979,982,984,984,985,983,983,984,981,976,970,966,964,967,972,972,969,969,969,971,971,971,968,966,969,973,974,974,971,973,972,981,988,991,991,992,990,990,987,988,990,990,995,997,998,999,1002,1000,1002,1003,1001,1001,1000,998,1001,1006,1008,1008,1005,1000,993,983,972,965,967,977,992,1008,1018,1030,1036,1043,1052,1065,1093,1130,1170,1193,1194,1178,1163,1140,1104,1077,1058,1041,1029,1019,1014,1012,1012,1014,1019,1023,1021,1022,1019,1017,1018,1019,1023,1024,1026,1028,1031,1028,1026,1023,1025,1032,1036,1033,1034,1033,1036,1039,1038,1039,1035,1033,1037,1041,1042,1042,1042,1041,1044,1043,1044,1042,1043,1044,1049,1055,1056,1056,1052,1049,1050,1053,1056,1061,1062,1063,1065,1066,1066,1063,1063,1062,1065,1068,1071,1075,1074,1073,1074,1071,1071,1073,1073,1074,1081,1085,1087,1083,1078,1072,1070,1074,1078,1078,1077,1073,1068,1069,1065,1062,1057,1056,1056,1055,1052,1051,1050,1046,1042,1043,1040,1041,1036,1034,1034,1037,1034,1031,1029,1025,1029,1028,1029,1027,1026,1025,1027,1025,1026,1026,1021,1018,1020,1023,1024,1025,1024,1023,1019,1020,1018,1017,1015,1012,1015,1017,1017,1014,1010,1005,1005,1004,1005,1006,1007,1007,1010,1011,1006,999,997,996,996,1000,1003,1005,1004,999,997,1000,997,996,996,993,997,1002,1003,1003,1000,998,1000,1000,1002,999,998,999,1000,1003,1003,1002,999,999,999,999,1000,1001,1001,999,999,1003,1007,1004,1000,997,1001,1004,1004,1004,1003,999,1003,1004,1003,1000,1002,1004,1007,1009,1013,1012,1014,1014,1012,1011,1009,1007,1004,1006,1009,1012,1013,1009,1005,1000,999,999,1000,1000,1001,1001,996,998,994,993,988,978,981,982,985,989,985,984,983,985,982,979,977,976,983,986,994,993,995,989,1000,1000,1002,1004,1000,998,1000,1007,1009,1010,1007,1002,1005,1010,1010,1013,1012,1007,1011,1015,1015,1013,1011,1005,1007,1011,1012,1012,1009,998,990,977,964,959,960,972,990,1008,1024,1037,1042,1045,1056,1078,1111,1154,1190,1206,1203,1184,1152,1117,1078,1050,1035,1028,1023,1023,1020,1015,1014,1016,1017,1018,1019,1017,1020,1020,1022,1019,1021,1017,1017,1023,1024,1026,1023,1022,1024,1025,1028,1028,1028,1025,1031,1029,1033,1035,1033,1028,1030,1031,1031,1034,1032,1033,1037,1039,1040,1037,1032,1033,1036,1038,1047,1045,1043,1041,1043,1042,1045,1044,1045,1048,1052,1057,1056,1054,1051,1049,1051,1054,1057,1060,1062,1062,1063,1063,1062,1061,1057,1056,1060,1065,1069,1068,1066,1060,1060,1060,1062,1060,1057,1055,1053,1053,1051,1044,1041,1035,1036,1035,1034,1033,1029,1025,1025,1026,1023,1020,1018,1013,1014,1019,1019,1019,1016,1010,1011,1015,1012,1010,1005,1004,1010,1012,1015,1013,1010,1004,1004,1003,1002,1001,999,997,1003,1006,1005,1002,995,991,991,994,997,999,999,997,994,996,992,986,983,986,988,991,992,989,989,985,985,985,987,986,982,983,984,984,986,984,979,977,982,983,987,986,986,985,986,987,985,986,983,983,985,986,989,989,984,985,988,990,991,991,989,987,985,992,995,994,993,991,992,991,995,993,989,986,988,992,993,994,991,987,985,991,994,995,997,1001,1004,1007,1006,1005,1002,992,994,993,996,998,993,991,994,993,991,986,985,982,982,988,990,992,984,981,981,978,977,973,969,969,974,977,979,976,974,968,970,972,976,976,975,973,978,983,986,986,986,987,985,990,992,987,985,987,989,994,996,997,995,992,995,997,1000,996,996,995,998,1001,1004,1004,1003,1000,998,1001,1000,998,994,997,994,990,982,967,954,947,954,962,973,984,996,1007,1020,1026,1033,1045,1057,1088,1130,1169,1189,1189,1168,1152,1129,1102,1073,1052,1032,1021,1012,1013,1013,1012,1007,1004,1005,1005,1007,1009,1009,1007,1008,1012,1015,1013,1009,1010,1011,1011,1011,1014,1013,1013,1014,1018,1019,1022,1017,1016,1020,1021,1025,1021,1021,1020,1021,1026,1030,1028,1024,1023,1026,1028,1028,1029,1028,1029,1029,1034,1036,1038,1031,1031,1032,1034,1034,1033,1037,1038,1044,1044,1045,1046,1041,1039,1041,1046,1050,1053,1052,1054,1055,1057,1055,1054,1054,1055,1057,1063,1066,1068,1061,1060,1061,1062,1065,1065,1062,1064,1064,1065,1067,1065,1060,1058,1060,1062,1062,1062,1059,1054,1050,1053,1050,1049,1046,1043,1040,1038,1038,1037,1034,1028,1030,1030,1030,1028,1023,1021,1022,1022,1023,1025,1024,1020,1021,1022,1018,1016,1010,1009,1012,1017,1019,1018,1014,1011,1009,1005,1006,1006,1006,1005,1008,1010,1008,1004,999,994,996,998,1003,1004,1003,997,997,997,996,995,989,988,994,998,999,998,996,992,989,987,991,992,990,991,993,994,995,995,992,988,990,993,998,999,997,995,995,995,995,995,997,999,1000,1001,1000,997,997,994,1001,1003,1004,1001,1000,998,999,1002,1004,1003,1001,999,1001,1002,1003,1001,1000,996,1000,1001,1004,1004,1004,1005,1007,1011,1010,1009,1010,1014,1017,1019,1021,1018,1013,1009,1009,1009,1008,1007,1004,1004,1007,1008,1007,1003,997,996,994,994,995,997,995,996,995,993,989,986,981,982,983,986,988,988,987,985,985,985,985,984,986,987,993,998,999,1000,1000,1000,1000,1001,999,995,995,996,998,1003,1006,1008,1008,1004,1006,1007,1006,1007,1002,1003,1003,1008,1008,1009,1008,1006,1003,1000,1000,994,993,991,988,982,975,968,968,973,985,997,1011,1024,1034,1041,1050,1056,1067,1083,1107,1140,1167,1186,1188,1179,1167,1150,1125,1097,1071,1047,1027,1018,1012,1012,1011,1012,1012,1012,1017,1020,1018,1019,1017,1016,1020,1025,1029,1030,1027,1023,1020,1022,1021,1022,1021,1019,1021,1024,1023,1024,1025,1022,1024,1028,1029,1029,1030,1033,1036,1040,1039,1041,1040,1039,1038,1037,1037,1032,1028,1025,1031,1034,1038,1040,1038,1039,1042,1039,1037,1036,1037,1039,1045,1047,1050,1053,1052,1048,1047,1046,1047,1055,1059,1059,1065,1066,1067,1062,1051,1044,1048,1051,1058,1059,1056,1055,1055,1055,1054,1052,1058,1057,1057,1051,1048,1051,1051,1050,1049,1048,1046,1041,1039,1037,1039,1042,1041,1042,1038,1033,1032,1029,1031,1030,1026,1022,1023,1025,1025,1019,1007,997,997,1006,1010,1014,1013,1013,1015,1020,1020,1017,1013,1010,1009,1009,1009,1006,999,996,1001,1008,1017,1018,1017,1014,1010,1008,1010,1006,1002,997,993,989,992,990,989,985,988,995,1001,1005,1007,1007,1006,1004,997,990,982,980,980,986,988,990,990,990,991,990,984,980,983,982,983,983,986,986,985,982,982,986,988,989,990,990,991,992,995,994,993,994,992,994,992,992,989,988,995,996,994,992,992,989,991,989,989,985,986,989,995,1001,1000,997,995,992,995,994,991,989,987,987,993,999,999,999,995,996,1001,1009,1008,1008,1002,997,993,989,984,983,984,990,997,1003,1000,993,983,975,975,975,978,980,981,977,979,980,978,974,973,972,971,979,982,980,979,975,975,975,977,981,983,981,986,990,992,995,987,983,983,980,981,977,973,969,973,975,981,986,986,985,986,993,994,992,987,989,993,1000,1001,998,990,984,980,974,967,961,955,963,975,984,991,995,999,1011,1023,1038,1059,1084,1119,1141,1155,1150,1134,1121,1099,1073,1050,1035,1020,1004,994,988,986,984,984,988,988,992,995,998,998,1000,999,997,997,999,1000,1003,1008,1006,1008,1008,1010,1012,1008,1002,999,1002,1005,1006,1001,999,1004,1011,1011,1007,1001,995,998,1001,1010,1012,1012,1012,1016,1015,1015,1017,1016,1019,1023,1031,1030,1027,1020,1009,1009,1011,1019,1026,1030,1030,1026,1022,1022,1023,1028,1036,1042,1042,1038,1036,1034,1033,1033,1037,1040,1044,1048,1046,1044,1047,1044,1040,1038,1038,1041,1044,1049,1050,1048,1044,1040,1039,1034,1031,1029,1028,1028,1026,1026,1018,1012,1004,1001,1000,1006,1009,1015,1013,1012,1004,995,991,987,988,992,994,994,991,989,989,988,992,992,989,980,976,977,980,981,979,980,982,983,990,992,989,982,970,964,965,968,975,980,976,974,966,964,962,962,961,962,964,970,969,969,968,967,968,966,958,952,946,949,952,952,955,952,947,951,954,960,959,956,953,952,954,955,954,952,951,955,959,958,962,957,954,954,954,959,959,960,958,959,959,960,959,957,952,957,959,961,959,956,954,958,960,964,965,963,963,960,957,956,959,957,959,963,968,971,972,972,973,970,971,968,967,963,963,963,968,968,969,964,958,954,954,953,953,955,952,953,950,954,953,951,949,952,950,952,951,949,942,943,946,946,939,935,930,938,936,934,937,936,936,938,942,945,947,951,953,956,958,958,958,955,951,955,955,960,966,964,960,960,968,971,974,973,973,969,971,964,962,959,961,961,963,965,968,967,963,961,958,949,937,922,920,925,936,947,958,967,971,978,989,999,1010,1017,1036,1069,1109,1141,1159,1161,1145,1128,1113,1085,1057,1037,1020,1003,993,988,982,981,979,981,986,989,987,986,983,987,986,985,987,987,983,986,989,993,990,990,989,991,994,998,999,996,992,993,995,998,999,999,1005,1005,1011,1013,1011,1012,1010,1010,1007,1004,1001,1001,1003,1002,1001,1001,1000,1001,1004,1008,1009,1014,1015,1015,1013,1015,1016,1018,1019,1019,1021,1022,1021,1022,1024,1022,1021,1024,1023,1026,1024,1027,1029,1035,1036,1036,1035,1031,1029,1028,1033,1034,1036,1036,1038,1041,1042,1039,1036,1034,1033,1034,1038,1039,1041,1038,1037,1037,1036,1033,1028,1024,1021,1020,1023,1022,1025,1023,1017,1016,1015,1016,1011,1003,999,1003,1006,1005,1001,1002,999,1000,1000,1000,998,996,995,996,997,999,997,994,995,996,998,998,997,993,989,989,986,987,986,992,994,995,993,991,987,985,985,988,991,992,992,991,989,990,990,987,985,982,981,987,989,988,985,982,980,978,979,977,977,975,976,978,979,980,981,979,975,973,977,981,983,981,978,980,979,984,982,977,976,975,977,975,974,974,973,975,979,980,981,978,977,979,984,986,985,984,982,986,990,992,996,990,988,987,984,985,981,981,977,975,979,978,982,980,977,975,976,975,977,978,981,986,990,991,992,991,988,989,988,992,986,986,986,988,992,994,989,985,982,989,994,997,995,1000,1002,1002,997,993,986,978,973,973,974,972,969,967,964,968,969,970,968,964,960,962,968,970,976,977,978,978,980,977,976,977,978,982,982,984,990,987,985,986,989,991,991,988,986,985,987,987,992,994,996,1000,1001,1000,999,1000,999,1001,997,1002,1004,1007,1005,1006,1000,999,995,988,980,971,965,957,955,965,976,992,1005,1018,1026,1029,1031,1034,1038,1046,1059,1080,1115,1156,1189,1201,1194,1173,1150,1121,1092,1067,1048,1034,1020,1012,1008,1004,1000,998,1001,1004,1004,1005,1009,1009,1011,1011,1009,1009,1007,1004,1000,1001,1004,1012,1013,1011,1005,1004,1007,1012,1015,1014,1013,1014,1017,1019,1016,1013,1007,1007,1005,1003,1003,1004,999,1002,1009,1012,1010,1012,1012,1009,1010,1016,1018,1020,1021,1023,1024,1024,1023,1021,1017,1017,1016,1020,1022,1022,1017,1017,1022,1028,1026,1030,1025,1031,1037,1039,1035,1025,1019,1017,1017,1019,1022,1023,1023,1035,1040,1038,1038,1035,1032,1031,1029,1029,1030,1027,1025,1027,1027,1024,1020,1013,1016,1017,1019,1014,1007,1002,994,995,993,990,984,980,981,985,985,988,986,981,980,975,979,978,969,965,960,962,968,967,967,965
