835,834,836,832,833,833,834,831,832,833,834,833,836,837,834,835,835,833,834,835,835,835,837,839,839,840,840,839,838,837,836,835,835,835,837,839,840,841,841,840,837,836,832,832,832,831,833,836,837,836,837,838,835,834,834,835,836,837,838,840,841,840,841,841,840,839,840,839,838,839,837,840,843,841,844,845,843,843,845,844,847,850,851,855,855,853,855,855,854,854,853,853,852,855,854,853,855,854,853,856,854,854,853,852,850,850,852,853,853,853,851,849,843,843,843,842,843,843,847,847,852,851,851,853,851,852,851,853,857,864,871,884,902,920,940,959,972,984,993,996,998,1002,1013,1020,1024,1020,1010,994,977,957,941,923,907,894,883,877,873,867,862,858,855,851,853,854,854,854,856,860,861,861,860,862,861,860,860,858,858,860,862,862,864,866,866,865,865,864,865,863,862,862,866,867,869,870,870,869,869,870,866,869,870,870,871,872,874,875,875,873,871,873,869,869,869,869,870,871,873,877,878,878,876,876,875,874,875,873,878,878,881,882,878,883,881,878,879,876,879,877,877,881,881,882,882,880,878,879,878,875,874,873,874,875,875,877,875,872,869,863,863,862,858,858,856,855,857,855,853,853,848,846,844,842,840,840,840,841,840,842,840,840,839,836,833,834,832,833,834,834,836,837,834,834,832,831,828,827,827,828,830,831,832,832,831,831,828,826,821,826,825,826,826,828,828,829,829,826,828,827,824,822,823,825,827,829,829,829,828,829,826,827,826,826,826,826,828,826,830,831,832,832,831,829,827,827,828,828,829,830,832,834,833,831,830,825,827,826,826,827,828,830,830,831,831,832,831,831,830,829,829,831,831,831,834,835,835,835,835,835,833,833,832,834,832,834,835,835,835,836,836,833,833,828,830,832,834,835,834,837,836,835,833,834,831,831,832,833,834,835,835,835,834,834,831,833,832,832,833,834,835,836,837,838,838,837,838,833,834,833,833,831,835,837,840,838,839,839,844,847,847,846,845,846,847,847,849,853,852,853,853,852,850,848,849,848,849,851,854,855,855,854,852,848,845,844,843,844,842,843,843,842,841,843,842,844,844,843,846,844,843,847,847,850,851,854,857,861,868,880,897,919,944,970,989,1008,1018,1024,1026,1030,1031,1034,1026,1015,1004,990,973,957,939,922,906,892,882,873,866,860,858,856,854,856,856,857,857,856,857,854,852,855,858,857,860,861,862,864,862,861,858,857,858,857,859,864,865,867,866,866,868,866,866,865,865,866,866,866,867,868,868,870,872,871,868,868,870,868,871,872,872,875,874,875,874,873,872,873,872,873,874,875,880,882,882,883,880,880,877,881,883,885,886,888,888,888,888,887,888,886,883,882,879,880,881,881,884,882,884,880,880,874,869,867,865,866,866,866,865,864,863,861,859,857,854,850,850,849,849,845,850,850,848,846,843,843,842,840,836,840,842,843,844,845,842,840,837,838,834,836,835,834,836,837,837,839,839,836,838,836,834,833,833,834,834,836,836,837,834,836,834,834,831,831,830,832,831,833,835,836,834,834,833,832,833,831,831,831,832,832,833,833,834,833,833,833,830,830,830,830,833,832,834,835,836,837,835,833,833,833,833,835,835,835,836,839,839,838,838,834,834,833,836,835,834,838,837,838,837,838,837,838,837,835,837,836,837,839,841,841,838,841,837,841,839,839,837,839,838,841,843,844,842,843,840,842,841,838,836,838,841,841,842,843,843,845,844,843,842,839,837,842,840,843,843,847,845,845,845,844,842,838,840,842,846,847,849,849,851,856,855,854,853,852,851,853,853,856,858,857,859,859,859,858,856,855,855,856,858,859,863,865,862,862,858,856,854,852,850,851,850,851,852,853,855,852,851,850,847,846,846,846,849,851,856,856,858,859,858,858,859,862,868,879,893,914,942,965,991,1012,1027,1034,1041,1044,1050,1053,1051,1041,1029,1014,997,977,954,932,909,893,883,877,868,868,864,864,862,860,862,862,862,860,860,861,860,863,863,863,866,865,864,862,863,861,863,864,865,866,868,870,869,869,867,865,865,865,865,865,864,867,870,873,873,872,873,869,870,868,868,867,868,869,871,874,873,875,874,873,871,869,869,871,871,873,875,877,877,878,876,876,875,873,876,875,878,877,881,882,883,880,883,881,879,878,876,878,879,881,881,879,879,881,879,878,875,872,870,868,870,870,871,870,869,869,866,863,860,858,856,853,857,855,855,855,856,852,852,850,847,847,848,846,846,846,846,847,846,846,844,844,842,840,842,839,841,842,843,845,845,845,841,842,839,839,839,838,839,839,841,840,840,838,837,837,838,836,835,835,837,836,839,841,838,835,835,835,835,833,833,836,838,837,838,839,838,841,841,841,840,839,838,839,839,840,841,844,842,842,841,840,841,839,839,838,839,841,844,847,846,843,843,843,842,840,839,842,842,845,841,845,846,849,848,845,844,846,843,843,844,846,849,846,848,848,846,846,844,845,845,845,847,847,849,850,849,851,849,846,845,845,846,845,847,847,849,849,850,848,848,848,846,848,848,847,849,848,850,853,853,853,853,852,852,851,849,851,852,853,855,856,858,856,858,857,857,859,863,865,864,867,866,868,868,866,866,865,863,863,864,864,866,868,870,872,870,872,870,868,865,866,864,861,860,857,857,858,860,859,857,854,856,856,859,858,859,861,864,864,863,864,864,866,865,867,872,881,898,923,948,973,992,1009,1021,1027,1032,1040,1048,1058,1064,1066,1059,1049,1031,1015,999,980,960,941,921,904,894,883,879,877,873,870,872,870,868,866,863,865,868,869,868,869,871,872,871,869,869,868,869,871,871,871,874,877,875,874,873,871,870,869,868,869,872,872,875,877,877,877,875,875,874,872,872,874,874,872,878,880,880,876,878,879,877,875,874,876,876,878,879,881,880,882,881,880,878,880,880,879,881,883,884,886,888,888,887,887,885,885,883,883,884,885,886,886,885,886,888,883,880,879,877,878,879,879,881,881,880,879,873,870,867,865,865,863,860,862,864,864,862,859,858,856,854,854,853,852,853,853,852,852,852,851,847,847,847,846,845,845,846,847,848,849,845,846,845,843,840,838,839,839,841,839,840,839,837,838,837,834,829,830,829,830,832,833,833,835,832,831,831,830,831,830,826,826,830,829,831,833,833,834,833,833,832,832,828,830,831,832,834,838,837,836,835,835,833,831,831,830,833,836,838,840,840,840,836,834,832,833,833,836,836,839,839,842,840,839,838,839,837,837,836,835,836,838,837,841,839,840,839,840,839,840,837,836,837,839,839,843,844,841,842,841,839,838,837,839,839,841,841,844,844,843,840,840,837,839,836,839,837,838,839,841,840,842,841,841,839,837,838,839,840,839,840,844,845,844,845,844,844,840,840,841,844,847,853,855,856,859,858,854,853,851,850,850,853,854,855,859,857,856,856,855,853,855,853,853,854,853,854,851,850,848,845,842,840,841,838,836,839,839,842,846,845,845,843,844,843,845,844,846,850,858,871,891,913,935,957,972,986,992,1001,1007,1017,1029,1037,1040,1034,1024,1007,990,970,947,925,907,897,884,878,871,867,862,858,856,851,849,850,852,852,852,853,856,854,857,857,852,853,853,852,852,854,855,854,857,857,858,861,859,858,858,856,856,859,859,859,861,863,863,864,863,860,863,862,860,859,860,864,865,863,866,863,861,860,860,858,863,865,864,867,869,868,867,869,868,869,868,867,866,868,871,873,876,878,877,876,875,873,872,870,869,871,872,873,871,872,876,872,869,869,867,866,865,864,865,862,862,861,859,855,854,851,848,847,844,844,844,843,843,844,842,840,837,836,832,831,828,827,828,830,831,831,829,830,827,825,822,822,819,821,821,822,825,824,821,822,819,816,814,812,810,811,812,811,811,812,810,811,808,805,801,803,803,805,805,809,810,808,809,808,807,805,805,805,805,804,806,809,807,808,807,806,805,803,799,801,803,804,803,805,807,810,808,809,807,805,803,803,801,804,804,807,810,809,812,807,806,805,804,803,802,806,808,810,811,810,809,808,809,811,809,808,806,810,810,811,811,808,809,813,811,807,809,807,809,807,810,811,815,816,814,814,813,810,808,808,806,809,812,814,815,814,812,814,814,815,812,812,812,811,814,815,816,816,816,815,815,812,812,812,814,811,811,814,816,817,816,814,815,814,814,814,814,815,817,819,822,826,826,828,829,829,829,828,828,828,831,832,834,834,832,830,832,828,828,826,825,826,830,833,831,834,834,829,826,826,823,821,820,819,820,822,825,825,824,826,824,824,823,821,823,825,826,827,832,832,835,836,840,851,865,884,907,929,950,965,978,984,987,993,997,1000,999,991,982,966,954,937,922,906,890,879,867,856,849,841,835,833,831,833,835,835,838,837,834,834,832,832,830,833,836,837,841,839,841,842,841,839,839,837,838,839,840,842,844,845,844,844,843,843,841,841,842,845,847,847,849,849,851,850,849,847,847,845,847,846,849,851,852,855,852,854,853,853,851,851,850,851,850,852,855,857,858,858,862,857,858,856,856,857,858,862,860,863,864,861,860,857,856,855,856,856,857,859,858,860,858,857,855,851,846,845,845,842,843,840,839,840,837,835,831,826,825,822,825,823,824,826,827,825,825,821,820,818,816,815,815,815,816,815,816,816,816,814,812,813,811,807,808,808,811,810,811,812,810,810,808,805,803,803,804,806,805,807,808,805,807,808,805,803,800,802,802,801,804,804,808,806,805,805,805,805,803,802,803,803,806,806,811,808,807,807,806,805,805,803,805,804,807,810,809,811,812,812,810,808,809,806,807,809,810,809,812,814,811,810,810,808,807,807,805,807,813,813,813,816,815,814,813,814,812,812,809,810,810,815,817,818,818,818,815,816,813,812,813,814,816,813,817,817,821,819,816,815,812,813,812,814,816,816,816,817,818,819,817,813,816,815,816,817,818,818,822,823,821,822,819,819,818,817,817,819,820,819,821,824,827,829,829,830,828,830,829,829,832,833,834,834,837,837,838,834,834,833,833,831,834,834,838,840,838,836,835,832,828,826,826,826,825,826,827,829,828,828,827,826,824,824,822,823,824,830,833,835,836,838,840,846,850,861,879,903,926,953,976,995,1004,1012,1015,1019,1020,1016,1008,998,984,972,956,944,927,909,894,881,868,857,850,843,837,836,835,837,840,838,841,839,839,840,838,839,840,841,844,847,844,845,847,842,843,841,842,844,844,848,848,850,850,850,849,850,849,847,848,848,847,849,853,855,855,856,856,855,855,853,851,852,857,857,861,860,861,860,859,859,859,858,858,859,860,862,863,868,864,864,862,862,858,861,863,867,867,869,871,873,873,873,872,870,866,865,866,865,864,865,865,866,867,867,863,863,860,858,853,857,852,852,854,853,849,849,844,840,837,836,834,833,834,836,833,834,835,832,831,828,826,825,826,826,829,830,830,828,828,829,827,826,824,821,823,822,824,823,823,825,824,824,822,821,814,813,812,813,816,819,817,818,819,817,816,815,812,813,812,814,815,818,820,819,817,813,815,814,810,812,811,813,813,818,818,819,818,820,818,814,812,812,812,812,814,815,818,819,820,818,818,818,818,818,815,818,819,822,822,822,821,818,818,819,820,816,817,820,821,822,824,826,824,822,823,822,822,822,820,821,823,824,826,828,827,826,826,825,823,821,824,822,823,826,826,828,829,829,826,824,824,821,822,825,824,826,827,827,827,828,828,826,825,826,826,826,827,829,830,828,830,830,831,830,829,825,826,826,829,831,834,837,838,840,837,836,835,835,837,836,840,840,842,844,842,844,843,842,841,841,841,842,843,843,844,845,844,845,844,842,840,839,836,832,832,836,838,840,839,841,838,837,837,835,838,839,840,843,845,845,847,850,855,861,874,891,916,940,966,994,1015,1030,1038,1047,1050,1048,1043,1031,1018,1003,989,975,959,943,927,908,893,879,866,857,853,850,851,848,851,855,854,856,857,854,853,854,854,856,856,858,860,861,864,865,864,863,860,859,858,859,862,863,866,870,870,868,868,867,870,868,869,869,870,871,873,876,874,877,874,875,873,874,873,875,877,876,878,881,881,880,880,880,879,878,879,877,883,884,885,885,886,886,885,884,884,884,884,885,887,887,890,888,890,889,888,887,887,883,883,885,884,883,886,887,887,886,883,877,875,876,873,873,871,871,872,869,869,866,865,860,857,855,853,851,851,850,853,855,852,854,849,848,845,843,846,845,845,846,847,848,847,847,845,845,844,842,839,842,843,842,842,845,843,843,840,841,837,837,839,838,838,837,839,840,839,838,837,836,833,833,833,832,832,832,834,835,833,835,835,835,834,833,833,833,836,837,836,837,838,839,837,835,835,834,832,834,834,835,837,839,836,836,836,836,834,835,833,834,834,837,837,838,839,838,838,835,838,832,836,835,838,837,841,842,841,842,839,836,835,836,836,836,837,839,841,842,842,842,841,838,837,837,836,836,838,840,841,845,842,840,841,838,839,836,834,835,838,839,839,840,842,843,842,841,840,835,836,837,839,840,842,842,843,841,841,840,838,837,835,837,839,839,839,842,842,841,842,839,838,838,835,838,839,840,843,846,847,848,850,852,852,849,846,845,847,850,852,855,852,850,851,850,852,850,850,850,852,855,854,854,854,852,850,847,846,844,842,841,839,842,841,845,843,845,843,846,842,843,842,843,844,846,846,850,850,854,855,860,866,878,896,917,940,963,986,1003,1013,1022,1024,1030,1035,1040,1040,1033,1021,1010,992,974,958,939,918,902,887,875,866,858,854,850,851,853,854,852,855,851,850,849,848,851,853,854,852,857,858,856,856,857,855,854,851,850,856,857,859,861,858,859,859,861,861,860,859,860,862,863,865,867,866,864,864,862,863,862,860,861,861,863,865,866,867,870,870,868,864,865,867,867,869,870,871,873,874,874,873,874,872,871,873,873,874,874,877,876,878,877,876,875,874,873,872,871,872,872,873,874,871,870,868,867,866,864,864,861,861,860,859,860,857,857,855,848,848,845,844,844,844,842,845,845,845,844,841,839,839,837,837,836,837,837,839,838,838,838,836,836,833,833,831,832,832,832,834,834,833,830,829,827,825,824,822,822,823,822,824,826,824,823,818,817,814,814,814,815,815,816,818,822,820,819,817,815,814,814,811,814,815,813,816,820,819,818,817,815,812,813,812,813,815,819,815,818,819,818,818,817,817,814,815,815,818,819,819,820,820,822,822,820,819,819,818,817,822,822,822,824,823,822,821,821,819,819,818,820,818,821,822,826,825,823,822,822,820,820,820,820,821,820,825,821,824,824,822,825,822,825,824,824,824,825,826,827,825,824,825,824,826,826,824,824,825,826,827,830,830,831,830,829,828,826,827,827,829,830,829,832,832,831,833,833,834,834,834,835,839,842,844,845,842,842,840,841,842,841,840,840,841,842,843,844,842,844,845,843,842,843,839,834,837,837,838,839,839,835,837,835,835,835,831,832,833,833,834,837,838,838,838,840,841,841,844,849,859,870,888,912,935,960,982,998,1010,1016,1020,1024,1031,1032,1031,1022,1007,992,974,958,942,923,907,892,881,871,867,862,857,851,849,846,844,847,846,849,850,850,854,857,854,853,853,852,853,852,853,855,856,855,857,859,861,860,861,861,861,860,860,860,861,862,867,867,869,870,870,864,861,862,860,866,866,868,870,872,874,873,875,871,871,870,871,871,874,874,876,878,878,879,876,876,877,875,876,876,879,881,882,886,886,886,886,886,885,884,883,883,886,885,885,886,886,885,884,881,880,878,877,876,873,874,873,874,871,872,871,866,863,860,856,853,857,857,857,857,855,854,855,850,849,848,848,847,845,845,848,849,849,850,848,847,846,844,841,842,844,844,846,847,847,845,845,843,841,836,838,839,839,839,842,842,842,842,842,840,835,831,835,832,833,833,835,833,835,835,835,835,832,830,831,830,829,833,834,836,836,836,834,834,832,831,829,829,831,834,834,835,835,836,835,834,833,831,831,832,833,835,835,839,836,839,838,839,837,834,833,834,835,837,837,838,839,841,841,838,838,837,836,838,839,840,840,841,842,841,841,839,841,838,837,837,839,840,844,844,846,844,843,843,841,841,840,839,840,841,846,846,847,847,849,848,846,845,844,843,846,845,847,849,849,849,849,847,847,844,844,844,845,846,851,851,852,853,853,854,855,854,857,857,859
